-0.215;0.015
-0.24;0.03
-0.24;0.005
-0.225;-0.02
-0.225;-0.05
-0.2;-0.055
-0.23;-0.05
-0.28;-0.05
-0.365;0
-0.41;-0.025
-0.455;-0.025
-0.5;-0.005
-0.55;0.015
-0.555;-0.01
-0.545;-0.04
-0.55;-0.02
-0.575;-0.025
-0.585;-0.025
-0.58;-0.025
-0.56;-0.035
-0.58;-0.045
-0.62;-0.025
-0.635;-0.015
-0.57;-0.035
-0.405;-0.065
-0.17;-0.07
0.13;-0.005
0.39;0.08
0.695;0.01
1.08;-0.35
1.615;-0.985
2.15;-1.625
2.505;-2.265
2.51;-2.845
2.345;-3.21
2.08;-3.125
1.67;-2.55
1.18;-1.915
0.695;-1.405
0.28;-1.055
-0.09;-0.785
-0.42;-0.575
-0.695;-0.445
-0.855;-0.35
-0.935;-0.265
-0.925;-0.21
-0.885;-0.12
-0.835;-0.04
-0.79;0.015
-0.77;0.095
-0.765;0.15
-0.76;0.16
-0.75;0.22
-0.75;0.245
-0.725;0.24
-0.725;0.245
-0.72;0.265
-0.705;0.29
-0.7;0.32
-0.69;0.325
-0.675;0.33
-0.68;0.335
-0.685;0.355
-0.68;0.38
-0.685;0.405
-0.705;0.405
-0.67;0.43
-0.66;0.43
-0.65;0.425
-0.66;0.48
-0.64;0.48
-0.675;0.5
-0.68;0.515
-0.655;0.555
-0.645;0.575
-0.67;0.6
-0.7;0.645
-0.705;0.68
-0.705;0.705
-0.7;0.74
-0.73;0.78
-0.75;0.81
-0.755;0.845
-0.7;0.855
-0.735;0.88
-0.73;0.9
-0.755;0.9
-0.765;0.885
-0.72;0.875
-0.655;0.865
-0.615;0.795
-0.57;0.77
-0.57;0.7
-0.5;0.64
-0.46;0.575
-0.46;0.495
-0.45;0.435
-0.435;0.39
-0.405;0.34
-0.385;0.295
-0.385;0.24
-0.395;0.215
-0.38;0.2
-0.365;0.165
-0.39;0.15
-0.395;0.11
-0.42;0.11
-0.415;0.135
-0.41;0.1
-0.41;0.09
-0.41;0.07
-0.4;0.075
-0.4;0.09
-0.385;0.09
-0.415;0.08
-0.42;0.09
-0.43;0.095
-0.465;0.09
-0.445;0.07
-0.435;0.07
-0.43;0.08
-0.455;0.085
-0.46;0.09
-0.44;0.08
-0.43;0.1
-0.44;0.07
-0.44;0.09
-0.445;0.055
-0.455;0.065
-0.45;0.06
-0.42;0.06
-0.435;0.05
-0.455;0.06
-0.44;0.04
-0.43;0.045
-0.43;0.06
-0.455;0.03
-0.43;0.045
-0.425;0.035
-0.385;0.025
-0.38;0.015
-0.375;0.01
-0.355;0.025
-0.285;0.03
-0.26;0.03
-0.265;0.04
-0.24;0.085
-0.225;0.07
-0.175;0.12
-0.145;0.12
-0.15;0.115
-0.13;0.095
-0.095;0.07
-0.065;0.05
-0.055;0.035
-0.07;0.02
-0.1;0.005
-0.095;-0.035
-0.08;-0.045
-0.08;-0.055
-0.105;-0.05
-0.16;-0.04
-0.225;-0.01
-0.26;-0.035
-0.34;-0.04
-0.39;-0.015
-0.42;0
-0.415;-0.015
-0.4;-0.02
-0.45;-0.035
-0.47;-0.02
-0.465;-0.035
-0.46;-0.03
-0.45;-0.02
-0.46;-0.04
-0.5;-0.03
-0.515;-0.05
-0.43;-0.065
-0.255;-0.08
-0.015;-0.075
0.22;0
0.45;0.08
0.755;-0.03
1.125;-0.405
1.665;-1.02
2.185;-1.66
2.44;-2.255
2.335;-2.805
2.125;-3.135
1.87;-3.015
1.47;-2.395
0.98;-1.765
0.555;-1.265
0.19;-0.955
-0.115;-0.72
-0.42;-0.54
-0.68;-0.435
-0.82;-0.34
-0.865;-0.28
-0.85;-0.205
-0.795;-0.15
-0.755;-0.07
-0.72;0
-0.695;0.065
-0.695;0.09
-0.675;0.125
-0.675;0.155
-0.675;0.175
-0.67;0.2
-0.67;0.185
-0.67;0.2
-0.69;0.215
-0.68;0.24
-0.67;0.235
-0.66;0.245
-0.645;0.265
-0.67;0.27
-0.67;0.275
-0.68;0.325
-0.69;0.3
-0.68;0.335
-0.665;0.34
-0.66;0.35
-0.68;0.375
-0.675;0.405
-0.68;0.435
-0.695;0.455
-0.71;0.455
-0.705;0.495
-0.72;0.51
-0.73;0.54
-0.725;0.595
-0.74;0.635
-0.765;0.665
-0.775;0.69
-0.795;0.705
-0.82;0.735
-0.835;0.76
-0.825;0.745
-0.835;0.78
-0.79;0.81
-0.8;0.795
-0.755;0.805
-0.735;0.75
-0.715;0.715
-0.695;0.66
-0.655;0.565
-0.605;0.52
-0.57;0.455
-0.54;0.39
-0.51;0.32
-0.475;0.27
-0.48;0.215
-0.46;0.16
-0.495;0.14
-0.47;0.095
-0.46;0.065
-0.455;0.06
-0.465;0.045
-0.48;0.025
-0.505;0.01
-0.48;0.005
-0.495;0
-0.49;0
-0.46;-0.005
-0.465;0.005
-0.5;-0.015
-0.5;-0.01
-0.5;0
-0.525;0.01
-0.51;-0.01
-0.53;0.005
-0.535;0
-0.55;0
-0.54;0
-0.545;-0.005
-0.54;-0.005
-0.545;0
-0.55;-0.015
-0.565;0
-0.56;-0.02
-0.555;-0.015
-0.56;0
-0.54;-0.02
-0.56;-0.02
-0.555;-0.01
-0.545;0.005
-0.56;-0.02
-0.565;-0.025
-0.55;-0.03
-0.525;-0.025
-0.55;-0.025
-0.52;-0.04
-0.525;-0.035
-0.51;-0.035
-0.5;-0.055
-0.45;-0.06
-0.425;-0.05
-0.395;-0.035
-0.34;0
-0.3;0.025
-0.295;0.035
-0.265;0.055
-0.23;0.07
-0.21;0.05
-0.215;0.03
-0.185;0.02
-0.16;-0.02
-0.19;-0.03
-0.205;-0.045
-0.2;-0.085
-0.17;-0.075
-0.13;-0.1
-0.145;-0.1
-0.21;-0.075
-0.28;-0.07
-0.33;-0.07
-0.35;-0.085
-0.36;-0.085
-0.455;-0.045
-0.5;-0.04
-0.51;-0.045
-0.5;-0.06
-0.54;-0.085
-0.515;-0.055
-0.52;-0.085
-0.515;-0.065
-0.535;-0.06
-0.56;-0.07
-0.575;-0.095
-0.53;-0.085
-0.41;-0.105
-0.2;-0.11
0.085;-0.055
0.33;0.015
0.595;0.015
0.915;-0.255
1.355;-0.81
1.89;-1.44
2.32;-2.08
2.4;-2.655
2.25;-3.105
1.985;-3.235
1.675;-2.805
1.19;-2.17
0.72;-1.585
0.35;-1.18
0.02;-0.89
-0.31;-0.665
-0.605;-0.53
-0.79;-0.435
-0.875;-0.355
-0.885;-0.265
-0.835;-0.215
-0.77;-0.115
-0.735;-0.05
-0.71;0.05
-0.705;0.085
-0.72;0.125
-0.725;0.165
-0.705;0.175
-0.665;0.2
-0.665;0.205
-0.675;0.22
-0.68;0.21
-0.655;0.24
-0.66;0.24
-0.64;0.245
-0.645;0.28
-0.645;0.28
-0.66;0.31
-0.66;0.315
-0.645;0.34
-0.65;0.345
-0.645;0.35
-0.66;0.37
-0.655;0.38
-0.64;0.425
-0.67;0.435
-0.655;0.445
-0.67;0.47
-0.675;0.515
-0.695;0.55
-0.7;0.56
-0.72;0.58
-0.72;0.64
-0.72;0.67
-0.74;0.705
-0.72;0.725
-0.73;0.75
-0.73;0.775
-0.775;0.81
-0.79;0.825
-0.79;0.83
-0.75;0.855
-0.745;0.855
-0.715;0.805
-0.67;0.77
-0.63;0.71
-0.58;0.66
-0.555;0.575
-0.52;0.51
-0.47;0.445
-0.45;0.36
-0.45;0.33
-0.445;0.27
-0.43;0.195
-0.41;0.17
-0.415;0.14
-0.42;0.11
-0.38;0.09
-0.405;0.07
-0.42;0.04
-0.41;0.035
-0.41;0.015
-0.415;0.015
-0.41;0.01
-0.425;0.02
-0.415;0.02
-0.44;0.01
-0.44;0.01
-0.425;0.02
-0.45;0.01
-0.47;0.01
-0.47;0.02
-0.47;0
-0.46;0
-0.455;0
-0.47;0.005
-0.475;0.015
-0.475;0.015
-0.485;0
-0.485;0.015
-0.465;-0.005
-0.465;-0.01
-0.45;0
-0.48;0.005
-0.475;0.005
-0.465;0
-0.44;0
-0.445;0
-0.465;0
-0.48;-0.03
-0.46;-0.025
-0.46;-0.015
-0.45;-0.03
-0.445;-0.065
-0.435;-0.06
-0.4;-0.045
-0.355;-0.04
-0.3;-0.025
-0.255;-0.015
-0.235;0.02
-0.225;0.015
-0.205;0.05
-0.195;0.075
-0.185;0.04
-0.18;0.015
-0.155;-0.01
-0.11;-0.05
-0.135;-0.065
-0.13;-0.085
-0.14;-0.085
-0.135;-0.13
-0.125;-0.125
-0.13;-0.125
-0.18;-0.13
-0.24;-0.125
-0.3;-0.12
-0.315;-0.14
-0.375;-0.125
-0.445;-0.09
-0.465;-0.09
-0.475;-0.1
-0.495;-0.115
-0.53;-0.13
-0.525;-0.105
-0.48;-0.15
-0.495;-0.12
-0.505;-0.125
-0.53;-0.12
-0.56;-0.14
-0.525;-0.13
-0.395;-0.185
-0.17;-0.18
0.14;-0.155
0.37;-0.055
0.61;-0.055
0.94;-0.305
1.395;-0.83
1.9;-1.465
2.3;-2.105
2.305;-2.73
2.11;-3.175
1.86;-3.23
1.51;-2.735
1.05;-2.1
0.595;-1.53
0.22;-1.175
-0.08;-0.9
-0.38;-0.695
-0.64;-0.54
-0.86;-0.465
-0.875;-0.37
-0.87;-0.29
-0.82;-0.24
-0.77;-0.15
-0.74;-0.08
-0.73;-0.025
-0.71;0.025
-0.715;0.055
-0.68;0.095
-0.685;0.105
-0.67;0.105
-0.66;0.13
-0.655;0.155
-0.67;0.165
-0.67;0.195
-0.675;0.195
-0.665;0.21
-0.665;0.24
-0.64;0.245
-0.655;0.25
-0.64;0.275
-0.635;0.27
-0.635;0.31
-0.66;0.34
-0.655;0.345
-0.66;0.325
-0.65;0.37
-0.655;0.4
-0.66;0.425
-0.665;0.455
-0.645;0.495
-0.655;0.52
-0.7;0.535
-0.71;0.6
-0.71;0.61
-0.71;0.64
-0.75;0.665
-0.775;0.69
-0.78;0.725
-0.795;0.755
-0.785;0.78
-0.78;0.795
-0.77;0.81
-0.75;0.78
-0.755;0.755
-0.72;0.76
-0.675;0.73
-0.64;0.675
-0.595;0.62
-0.58;0.555
-0.525;0.485
-0.45;0.41
-0.42;0.35
-0.425;0.31
-0.41;0.25
-0.42;0.205
-0.395;0.155
-0.38;0.13
-0.39;0.085
-0.4;0.075
-0.4;0.06
-0.42;0.06
-0.415;0.02
-0.415;0.035
-0.4;0.025
-0.41;0.04
-0.41;0.035
-0.4;0.005
-0.395;0.01
-0.41;0.03
-0.415;0.015
-0.405;0.005
-0.395;0.01
-0.405;0.005
-0.42;0.025
-0.425;0.045
-0.45;0.04
-0.44;0.025
-0.45;0.025
-0.425;0.01
-0.435;0.015
-0.43;0.025
-0.42;0.03
-0.425;0.01
-0.43;0.015
-0.425;0.025
-0.425;0.02
-0.44;0.01
-0.44;0.015
-0.42;-0.005
-0.42;0.005
-0.42;0.02
-0.41;0.02
-0.41;0.02
-0.395;0
-0.36;-0.01
-0.295;-0.01
-0.27;0.005
-0.26;0.02
-0.22;0.03
-0.185;0.08
-0.16;0.08
-0.15;0.075
-0.13;0.09
-0.12;0.09
-0.105;0.075
-0.06;0.05
-0.045;0.015
-0.07;0.01
-0.07;0
-0.065;-0.035
-0.04;-0.07
-0.035;-0.08
-0.02;-0.075
-0.105;-0.055
-0.155;-0.07
-0.21;-0.035
-0.225;-0.03
-0.295;-0.04
-0.35;-0.04
-0.37;-0.02
-0.375;-0.03
-0.37;-0.05
-0.4;-0.065
-0.415;-0.08
-0.41;-0.09
-0.4;-0.075
-0.41;-0.07
-0.4;-0.075
-0.455;-0.085
-0.415;-0.08
-0.32;-0.105
-0.13;-0.11
0.125;-0.11
0.41;-0.045
0.635;0.025
0.91;-0.06
1.3;-0.47
1.785;-1.045
2.29;-1.685
2.465;-2.325
2.35;-2.86
2.105;-3.19
1.79;-2.985
1.33;-2.35
0.87;-1.75
0.49;-1.325
0.155;-0.985
-0.17;-0.73
-0.485;-0.58
-0.66;-0.46
-0.75;-0.37
-0.75;-0.295
-0.69;-0.23
-0.645;-0.135
-0.6;-0.055
-0.575;0.005
-0.545;0.06
-0.535;0.105
-0.53;0.12
-0.53;0.155
-0.545;0.175
-0.525;0.18
-0.52;0.22
-0.49;0.215
-0.5;0.235
-0.5;0.265
-0.49;0.265
-0.495;0.275
-0.49;0.275
-0.475;0.275
-0.485;0.29
-0.485;0.31
-0.485;0.335
-0.48;0.35
-0.495;0.355
-0.515;0.375
-0.5;0.39
-0.48;0.43
-0.48;0.425
-0.485;0.475
-0.505;0.49
-0.505;0.565
-0.53;0.575
-0.54;0.59
-0.555;0.605
-0.565;0.655
-0.59;0.675
-0.595;0.73
-0.595;0.76
-0.62;0.77
-0.61;0.8
-0.6;0.81
-0.595;0.82
-0.59;0.825
-0.58;0.84
-0.58;0.815
-0.52;0.815
-0.5;0.735
-0.465;0.67
-0.405;0.625
-0.39;0.565
-0.345;0.465
-0.32;0.38
-0.32;0.325
-0.29;0.265
-0.255;0.22
-0.25;0.185
-0.265;0.155
-0.285;0.12
-0.28;0.07
-0.28;0.05
-0.27;0.035
-0.29;0.045
-0.3;0.005
-0.28;0.01
-0.3;0.005
-0.305;-0.02
-0.295;-0.01
-0.315;0
-0.34;-0.02
-0.32;-0.005
-0.34;0
-0.345;0.005
-0.345;0
-0.36;-0.01
-0.355;-0.03
-0.375;-0.02
-0.35;-0.03
-0.36;0
-0.38;0.02
-0.385;0.01
-0.365;0
-0.36;-0.015
-0.385;0
-0.405;0
-0.385;0
-0.385;-0.005
-0.375;-0.02
-0.38;-0.025
-0.38;-0.03
-0.37;-0.035
-0.365;-0.04
-0.36;-0.02
-0.355;-0.035
-0.32;-0.04
-0.3;-0.035
-0.27;-0.01
-0.225;-0.04
-0.21;-0.02
-0.14;0
-0.135;0.005
-0.13;0.04
-0.1;0.055
-0.095;0.08
-0.09;0.05
-0.06;0.03
-0.04;0.005
-0.025;-0.02
-0.025;-0.05
-0.01;-0.06
-0.03;-0.085
-0.015;-0.1
-0.005;-0.105
0.02;-0.135
0.01;-0.13
-0.06;-0.085
-0.13;-0.08
-0.185;-0.095
-0.235;-0.1
-0.285;-0.11
-0.325;-0.065
-0.345;-0.06
-0.325;-0.075
-0.355;-0.1
-0.375;-0.075
-0.375;-0.07
-0.365;-0.08
-0.35;-0.105
-0.365;-0.085
-0.4;-0.095
-0.4;-0.105
-0.35;-0.11
-0.22;-0.12
0.01;-0.13
0.3;-0.105
0.555;-0.02
0.79;-0.02
1.14;-0.29
1.605;-0.86
2.14;-1.5
2.53;-2.14
2.56;-2.78
2.395;-3.26
2.13;-3.335
1.765;-2.835
1.265;-2.2
0.795;-1.635
0.43;-1.245
0.075;-0.975
-0.255;-0.77
-0.54;-0.59
-0.705;-0.48
-0.77;-0.37
-0.765;-0.295
-0.725;-0.195
-0.68;-0.14
-0.63;-0.055
-0.595;0.01
-0.58;0.075
-0.58;0.125
-0.59;0.155
-0.575;0.175
-0.555;0.185
-0.545;0.23
-0.55;0.245
-0.54;0.235
-0.52;0.245
-0.55;0.27
-0.535;0.29
-0.54;0.3
-0.53;0.315
-0.525;0.32
-0.515;0.325
-0.51;0.365
-0.495;0.375
-0.495;0.365
-0.5;0.37
-0.505;0.425
-0.49;0.44
-0.49;0.465
-0.52;0.495
-0.54;0.53
-0.525;0.53
-0.53;0.56
-0.555;0.61
-0.57;0.66
-0.595;0.7
-0.59;0.725
-0.6;0.75
-0.63;0.79
-0.635;0.835
-0.62;0.875
-0.63;0.895
-0.665;0.92
-0.625;0.935
-0.61;0.94
-0.625;0.955
-0.605;0.93
-0.585;0.885
-0.52;0.84
-0.475;0.8
-0.415;0.715
-0.385;0.635
-0.32;0.555
-0.315;0.485
-0.3;0.42
-0.26;0.375
-0.255;0.305
-0.235;0.255
-0.225;0.215
-0.235;0.175
-0.24;0.135
-0.245;0.12
-0.27;0.11
-0.265;0.09
-0.235;0.08
-0.225;0.06
-0.235;0.045
-0.245;0.065
-0.25;0.085
-0.25;0.075
-0.265;0.045
-0.255;0.05
-0.25;0.05
-0.255;0.06
-0.3;0.07
-0.3;0.055
-0.28;0.045
-0.28;0.06
-0.29;0.07
-0.31;0.055
-0.295;0.06
-0.31;0.04
-0.31;0.06
-0.32;0.05
-0.31;0.06
-0.3;0.05
-0.285;0.045
-0.3;0.04
-0.32;0.045
-0.3;0.055
-0.275;0.045
-0.28;0.04
-0.26;0.035
-0.25;0.02
-0.24;0.005
-0.235;-0.005
-0.195;0.025
-0.175;0.025
-0.13;0.04
-0.11;0.08
-0.105;0.055
-0.07;0.095
-0.055;0.095
-0.015;0.08
0.015;0.09
0.035;0.085
0.06;0.07
0.075;0.055
0.095;0.035
0.12;0.025
0.105;0
0.11;-0.015
0.135;-0.025
0.135;-0.055
0.105;-0.075
0.06;-0.045
0;-0.045
-0.03;-0.03
-0.11;-0.05
-0.165;-0.055
-0.195;-0.02
-0.215;-0.015
-0.215;-0.02
-0.245;-0.055
-0.245;-0.045
-0.23;-0.055
-0.26;-0.055
-0.27;-0.06
-0.305;-0.065
-0.315;-0.07
-0.35;-0.075
-0.325;-0.105
-0.18;-0.105
0.05;-0.105
0.33;-0.1
0.635;-0.005
0.915;0.045
1.26;-0.13
1.755;-0.63
2.29;-1.26
2.655;-1.9
2.71;-2.515
2.55;-3.015
2.305;-3.17
1.975;-2.755
1.495;-2.12
1.045;-1.58
0.65;-1.165
0.31;-0.855
-0.06;-0.64
-0.38;-0.51
-0.57;-0.395
-0.645;-0.305
-0.64;-0.26
-0.61;-0.19
-0.545;-0.105
-0.515;-0.03
-0.49;0.02
-0.48;0.075
-0.455;0.12
-0.445;0.14
-0.44;0.16
-0.465;0.18
-0.445;0.2
-0.435;0.215
-0.45;0.215
-0.45;0.22
-0.435;0.21
-0.41;0.22
-0.435;0.255
-0.43;0.26
-0.415;0.275
-0.43;0.295
-0.425;0.315
-0.415;0.31
-0.43;0.335
-0.42;0.33
-0.425;0.345
-0.415;0.39
-0.4;0.405
-0.405;0.435
-0.415;0.465
-0.42;0.5
-0.435;0.5
-0.47;0.52
-0.46;0.57
-0.455;0.59
-0.465;0.615
-0.505;0.645
-0.535;0.685
-0.57;0.69
-0.545;0.73
-0.525;0.75
-0.51;0.775
-0.51;0.78
-0.53;0.805
-0.505;0.795
-0.49;0.77
-0.465;0.725
-0.415;0.685
-0.36;0.63
-0.31;0.55
-0.285;0.51
-0.235;0.44
-0.22;0.39
-0.19;0.335
-0.175;0.265
-0.16;0.22
-0.15;0.18
-0.13;0.135
-0.15;0.085
-0.145;0.055
-0.155;0.055
-0.145;0.035
-0.175;0.015
-0.175;0.005
-0.175;0
-0.175;-0.02
-0.155;-0.01
-0.175;0
-0.175;-0.02
-0.175;-0.035
-0.165;-0.03
-0.175;-0.05
-0.18;-0.03
-0.205;-0.03
-0.19;-0.035
-0.19;-0.03
-0.2;-0.02
-0.22;-0.035
-0.23;-0.02
-0.225;-0.035
-0.215;-0.03
-0.245;-0.05
-0.255;-0.03
-0.255;-0.015
-0.245;-0.045
-0.25;-0.035
-0.235;-0.02
-0.21;-0.045
-0.225;-0.035
-0.25;-0.06
-0.22;-0.065
-0.21;-0.04
-0.215;-0.045
-0.215;-0.055
-0.21;-0.075
-0.195;-0.09
-0.13;-0.07
-0.09;-0.065
-0.07;-0.055
-0.04;-0.055
-0.005;-0.03
0.04;-0.005
0.065;0.015
0.07;0.025
0.085;0.015
0.105;0.01
0.135;0
0.135;-0.035
0.13;-0.05
0.14;-0.085
0.12;-0.1
0.16;-0.095
0.185;-0.125
0.19;-0.125
0.18;-0.125
0.11;-0.12
0.03;-0.08
-0.015;-0.095
-0.07;-0.1
-0.11;-0.105
-0.16;-0.065
-0.165;-0.08
-0.165;-0.08
-0.185;-0.105
-0.225;-0.115
-0.21;-0.115
-0.21;-0.145
-0.195;-0.125
-0.205;-0.11
-0.22;-0.14
-0.225;-0.115
-0.16;-0.135
-0.015;-0.14
0.205;-0.17
0.48;-0.125
0.74;-0.04
0.985;-0.08
1.335;-0.375
1.825;-0.925
2.335;-1.565
2.615;-2.205
2.545;-2.815
2.34;-3.205
2.075;-3.18
1.695;-2.655
1.23;-2.02
0.805;-1.485
0.465;-1.135
0.175;-0.88
-0.155;-0.69
-0.435;-0.525
-0.57;-0.45
-0.59;-0.365
-0.565;-0.305
-0.51;-0.225
-0.46;-0.15
-0.44;-0.08
-0.42;0
-0.43;0.04
-0.415;0.07
-0.405;0.09
-0.385;0.12
-0.365;0.145
-0.36;0.165
-0.365;0.165
-0.38;0.175
-0.365;0.21
-0.37;0.2
-0.375;0.24
-0.355;0.23
-0.355;0.24
-0.36;0.265
-0.405;0.265
-0.395;0.26
-0.39;0.27
-0.385;0.295
-0.38;0.34
-0.375;0.355
-0.355;0.365
-0.365;0.395
-0.375;0.41
-0.38;0.43
-0.4;0.465
-0.425;0.475
-0.425;0.515
-0.435;0.54
-0.45;0.555
-0.475;0.63
-0.495;0.67
-0.49;0.695
-0.505;0.705
-0.515;0.75
-0.495;0.745
-0.535;0.78
-0.49;0.775
-0.485;0.78
-0.465;0.76
-0.42;0.72
-0.385;0.685
-0.34;0.655
-0.3;0.59
-0.24;0.535
-0.21;0.44
-0.185;0.38
-0.16;0.33
-0.13;0.265
-0.135;0.21
-0.125;0.15
-0.12;0.1
-0.095;0.06
-0.105;0.055
-0.095;0.02
-0.115;0
-0.13;-0.015
-0.12;-0.01
-0.135;-0.02
-0.135;-0.035
-0.12;-0.05
-0.135;-0.065
-0.14;-0.04
-0.13;-0.04
-0.13;-0.05
-0.14;-0.065
-0.175;-0.045
-0.185;-0.04
-0.18;-0.06
-0.19;-0.04
-0.185;-0.06
-0.225;-0.045
-0.21;-0.05
-0.215;-0.05
-0.2;-0.055
-0.22;-0.05
-0.205;-0.045
-0.21;-0.065
-0.215;-0.065
-0.2;-0.05
-0.205;-0.06
-0.21;-0.065
-0.215;-0.075
-0.2;-0.065
-0.2;-0.09
-0.205;-0.08
-0.195;-0.09
-0.195;-0.095
-0.19;-0.105
-0.165;-0.105
-0.12;-0.115
-0.065;-0.09
-0.05;-0.08
-0.035;-0.09
0.005;-0.08
0.02;-0.035
0.045;-0.01
0.085;-0.035
0.08;-0.005
0.1;-0.005
0.11;-0.045
0.15;-0.08
0.15;-0.11
0.13;-0.115
0.13;-0.15
0.12;-0.175
0.14;-0.215
0.19;-0.235
0.155;-0.21
0.075;-0.195
0.02;-0.17
-0.04;-0.16
-0.06;-0.175
-0.115;-0.165
-0.16;-0.155
-0.195;-0.145
-0.225;-0.135
-0.235;-0.15
-0.215;-0.18
-0.215;-0.165
-0.21;-0.15
-0.22;-0.175
-0.235;-0.18
-0.285;-0.19
-0.27;-0.185
-0.23;-0.205
-0.05;-0.24
0.185;-0.24
0.455;-0.185
0.705;-0.115
0.935;-0.145
1.275;-0.42
1.725;-0.975
2.27;-1.615
2.61;-2.255
2.595;-2.885
2.39;-3.335
2.115;-3.36
1.715;-2.865
1.235;-2.23
0.8;-1.675
0.435;-1.29
0.14;-1.025
-0.155;-0.825
-0.405;-0.66
-0.565;-0.545
-0.61;-0.45
-0.605;-0.395
-0.545;-0.32
-0.485;-0.235
-0.45;-0.14
-0.44;-0.095
-0.43;-0.025
-0.41;0.025
-0.415;0.065
-0.41;0.07
-0.42;0.09
-0.4;0.09
-0.415;0.085
-0.385;0.13
-0.39;0.145
-0.395;0.125
-0.37;0.13
-0.375;0.155
-0.375;0.165
-0.385;0.185
-0.39;0.195
-0.39;0.245
-0.38;0.23
-0.385;0.235
-0.365;0.255
-0.375;0.29
-0.375;0.295
-0.395;0.325
-0.395;0.345
-0.41;0.365
-0.43;0.405
-0.42;0.44
-0.43;0.47
-0.42;0.495
-0.465;0.54
-0.46;0.575
-0.485;0.615
-0.51;0.635
-0.51;0.66
-0.525;0.7
-0.54;0.73
-0.53;0.75
-0.525;0.77
-0.515;0.775
-0.485;0.77
-0.48;0.765
-0.45;0.725
-0.415;0.68
-0.35;0.61
-0.32;0.56
-0.275;0.46
-0.225;0.415
-0.21;0.345
-0.185;0.265
-0.155;0.205
-0.13;0.145
-0.125;0.105
-0.145;0.05
-0.16;0.04
-0.145;0.015
-0.12;-0.03
-0.12;-0.025
-0.13;-0.04
-0.125;-0.06
-0.135;-0.05
-0.115;-0.035
-0.12;-0.06
-0.16;-0.045
-0.16;-0.065
-0.175;-0.05
-0.16;-0.07
-0.18;-0.075
-0.18;-0.06
-0.18;-0.055
-0.19;-0.05
-0.2;-0.065
-0.185;-0.08
-0.21;-0.07
-0.19;-0.07
-0.2;-0.075
-0.215;-0.07
-0.225;-0.045
-0.22;-0.07
-0.21;-0.065
-0.2;-0.05
-0.205;-0.07
-0.185;-0.06
-0.185;-0.08
-0.19;-0.08
-0.195;-0.05
-0.19;-0.065
-0.2;-0.035
-0.205;-0.04
-0.18;-0.075
-0.16;-0.08
-0.135;-0.1
-0.12;-0.095
-0.085;-0.075
-0.05;-0.06
0.005;-0.055
0.01;-0.055
0.035;-0.045
0.065;-0.01
0.095;-0.02
0.1;-0.02
0.13;-0.005
0.14;0.015
0.17;-0.025
0.165;-0.065
0.145;-0.065
0.145;-0.08
0.145;-0.125
0.165;-0.155
0.175;-0.15
0.17;-0.15
0.105;-0.15
0.055;-0.135
0.02;-0.125
-0.025;-0.12
-0.085;-0.13
-0.13;-0.1
-0.16;-0.105
-0.155;-0.125
-0.19;-0.13
-0.19;-0.145
-0.2;-0.13
-0.205;-0.14
-0.19;-0.125
-0.2;-0.145
-0.26;-0.125
-0.29;-0.125
-0.245;-0.145
-0.12;-0.155
0.085;-0.185
0.375;-0.15
0.625;-0.065
0.84;-0.03
1.14;-0.225
1.575;-0.67
2.13;-1.31
2.585;-1.95
2.665;-2.59
2.475;-3.145
2.22;-3.4
1.855;-3.075
1.375;-2.44
0.925;-1.805
0.54;-1.38
0.195;-1.05
-0.115;-0.815
-0.4;-0.64
-0.56;-0.53
-0.62;-0.42
-0.63;-0.355
-0.575;-0.285
-0.535;-0.19
-0.49;-0.12
-0.455;-0.035
-0.445;0.015
-0.44;0.055
-0.425;0.085
-0.42;0.1
-0.39;0.13
-0.405;0.145
-0.405;0.165
-0.41;0.185
-0.405;0.18
-0.405;0.195
-0.395;0.21
-0.4;0.215
-0.385;0.23
-0.39;0.225
-0.38;0.255
-0.37;0.265
-0.39;0.285
-0.415;0.305
-0.405;0.315
-0.395;0.335
-0.385;0.34
-0.39;0.35
-0.405;0.4
-0.415;0.415
-0.435;0.47
-0.44;0.47
-0.445;0.5
-0.455;0.54
-0.48;0.55
-0.48;0.595
-0.505;0.64
-0.52;0.685
-0.53;0.7
-0.535;0.72
-0.54;0.735
-0.535;0.735
-0.535;0.79
-0.515;0.8
-0.52;0.795
-0.525;0.775
-0.475;0.745
-0.44;0.705
-0.39;0.625
-0.35;0.595
-0.3;0.505
-0.255;0.465
-0.225;0.36
-0.205;0.31
-0.195;0.265
-0.17;0.195
-0.17;0.145
-0.165;0.095
-0.155;0.065
-0.15;0.045
-0.16;0.015
-0.165;0.01
-0.21;-0.005
-0.165;-0.025
-0.175;-0.025
-0.18;-0.035
-0.185;-0.035
-0.2;-0.055
-0.195;-0.05
-0.2;-0.055
-0.215;-0.06
-0.21;-0.035
-0.225;-0.04
-0.25;-0.045
-0.25;-0.04
-0.245;-0.03
-0.225;-0.03
-0.23;-0.05
-0.23;-0.06
-0.255;-0.065
-0.27;-0.05
-0.29;-0.05
-0.255;-0.055
-0.25;-0.045
-0.25;-0.03
-0.25;-0.06
-0.25;-0.07
-0.225;-0.08
-0.25;-0.08
-0.255;-0.08
-0.285;-0.075
-0.265;-0.075
-0.235;-0.08
-0.2;-0.11
-0.19;-0.12
-0.19;-0.1
-0.155;-0.095
-0.125;-0.08
-0.065;-0.07
-0.035;-0.055
-0.02;-0.035
-0.02;-0.02
0;-0.005
0.04;0.005
0.045;0.005
0.065;0.01
0.105;-0.02
0.105;-0.075
0.115;-0.095
0.105;-0.11
0.115;-0.145
0.12;-0.145
0.155;-0.195
0.16;-0.205
0.15;-0.2
0.085;-0.175
0.04;-0.17
-0.015;-0.165
-0.075;-0.145
-0.125;-0.15
-0.175;-0.145
-0.165;-0.14
-0.185;-0.145
-0.22;-0.16
-0.205;-0.155
-0.22;-0.16
-0.225;-0.165
-0.2;-0.165
-0.235;-0.16
-0.27;-0.145
-0.275;-0.16
-0.19;-0.19
-0.06;-0.21
0.185;-0.24
0.48;-0.2
0.73;-0.095
0.97;-0.07
1.305;-0.32
1.765;-0.86
2.3;-1.495
2.66;-2.135
2.66;-2.775
2.445;-3.27
2.18;-3.41
1.82;-3.015
1.355;-2.38
0.885;-1.77
0.535;-1.365
0.215;-1.08
-0.105;-0.86
-0.39;-0.65
-0.56;-0.535
-0.615;-0.44
-0.595;-0.375
-0.545;-0.3
-0.49;-0.225
-0.45;-0.125
-0.445;-0.025
-0.425;0.035
-0.4;0.05
-0.42;0.085
-0.445;0.11
-0.425;0.14
-0.395;0.155
-0.385;0.165
-0.41;0.185
-0.395;0.195
-0.4;0.205
-0.405;0.24
-0.375;0.235
-0.36;0.235
-0.355;0.25
-0.365;0.255
-0.395;0.29
-0.37;0.31
-0.365;0.315
-0.36;0.355
-0.34;0.365
-0.36;0.385
-0.36;0.39
-0.355;0.425
-0.385;0.465
-0.38;0.475
-0.41;0.5
-0.41;0.535
-0.43;0.59
-0.45;0.605
-0.46;0.63
-0.48;0.68
-0.47;0.71
-0.51;0.75
-0.51;0.79
-0.515;0.81
-0.51;0.81
-0.495;0.835
-0.51;0.84
-0.485;0.83
-0.465;0.825
-0.435;0.78
-0.39;0.74
-0.34;0.7
-0.285;0.66
-0.26;0.57
-0.2;0.495
-0.19;0.42
-0.155;0.37
-0.13;0.31
-0.135;0.275
-0.12;0.21
-0.11;0.165
-0.12;0.095
-0.16;0.065
-0.135;0.045
-0.125;0.025
-0.12;0.005
-0.15;0.015
-0.145;0
-0.135;0
-0.17;-0.01
-0.17;-0.03
-0.16;-0.015
-0.17;-0.01
-0.15;-0.01
-0.185;-0.03
-0.185;-0.015
-0.18;-0.03
-0.195;-0.04
-0.19;-0.04
-0.205;-0.025
-0.225;-0.04
-0.21;-0.04
-0.205;-0.04
-0.225;-0.03
-0.24;-0.02
-0.24;-0.025
-0.225;-0.03
-0.22;-0.04
-0.22;-0.03
-0.22;-0.035
-0.22;-0.02
-0.195;-0.03
-0.2;-0.045
-0.195;-0.06
-0.16;-0.04
-0.165;-0.075
-0.175;-0.07
-0.175;-0.035
-0.17;-0.065
-0.14;-0.07
-0.115;-0.06
-0.045;-0.045
-0.02;-0.045
0.015;-0.015
0.03;0.01
0.065;0.05
0.085;0.015
0.085;0.005
0.11;0.025
0.11;0.01
0.165;-0.025
0.175;-0.05
0.17;-0.06
0.155;-0.065
0.155;-0.085
0.185;-0.14
0.22;-0.15
0.2;-0.17
0.16;-0.14
0.09;-0.125
0.03;-0.105
-0.02;-0.11
-0.085;-0.105
-0.135;-0.105
-0.14;-0.1
-0.17;-0.11
-0.18;-0.13
-0.18;-0.135
-0.18;-0.13
-0.18;-0.115
-0.18;-0.11
-0.205;-0.135
-0.255;-0.115
-0.28;-0.155
-0.23;-0.16
-0.1;-0.17
0.125;-0.19
0.39;-0.185
0.625;-0.125
0.86;-0.03
1.16;-0.175
1.58;-0.6
2.105;-1.24
2.57;-1.88
2.69;-2.52
2.52;-3.095
2.285;-3.39
1.935;-3.195
1.495;-2.56
1.02;-1.975
0.635;-1.515
0.295;-1.205
-0.02;-0.945
-0.345;-0.755
-0.55;-0.62
-0.62;-0.515
-0.64;-0.425
-0.595;-0.315
-0.57;-0.235
-0.525;-0.14
-0.485;-0.04
-0.47;0.005
-0.46;0.03
-0.465;0.055
-0.445;0.1
-0.45;0.13
-0.455;0.155
-0.435;0.15
-0.435;0.175
-0.42;0.18
-0.42;0.205
-0.435;0.225
-0.425;0.225
-0.41;0.245
-0.43;0.255
-0.42;0.29
-0.425;0.29
-0.42;0.285
-0.44;0.29
-0.42;0.305
-0.44;0.335
-0.445;0.365
-0.43;0.37
-0.445;0.42
-0.435;0.425
-0.45;0.45
-0.45;0.485
-0.46;0.53
-0.475;0.545
-0.49;0.57
-0.515;0.62
-0.52;0.655
-0.535;0.695
-0.555;0.705
-0.57;0.74
-0.56;0.765
-0.555;0.795
-0.545;0.815
-0.545;0.84
-0.525;0.84
-0.485;0.82
-0.475;0.775
-0.45;0.74
-0.415;0.68
-0.345;0.615
-0.31;0.56
-0.285;0.515
-0.245;0.435
-0.225;0.375
-0.205;0.305
-0.2;0.235
-0.21;0.195
-0.21;0.145
-0.2;0.12
-0.175;0.11
-0.195;0.055
-0.19;0.04
-0.21;0.035
-0.23;0.035
-0.195;0.02
-0.205;0.01
-0.205;0
-0.24;-0.005
-0.275;-0.01
-0.265;-0.035
-0.26;-0.03
-0.235;-0.01
-0.26;-0.015
-0.275;0
-0.265;-0.015
-0.265;-0.015
-0.27;-0.025
-0.27;-0.025
-0.295;-0.02
-0.31;-0.025
-0.31;-0.025
-0.315;-0.02
-0.32;-0.015
-0.3;-0.025
-0.305;-0.035
-0.31;-0.025
-0.32;-0.04
-0.3;-0.04
-0.285;-0.06
-0.3;-0.06
-0.315;-0.055
-0.305;-0.085
-0.29;-0.07
-0.28;-0.07
-0.265;-0.06
-0.255;-0.065
-0.25;-0.05
-0.21;-0.05
-0.17;-0.065
-0.135;-0.04
-0.11;-0.05
-0.065;-0.03
-0.06;-0.005
-0.025;0.035
-0.01;0.02
0.015;0.03
0.025;0.015
0.075;0
0.11;-0.01
0.14;-0.03
0.125;-0.04
0.14;-0.04
0.135;-0.08
0.145;-0.11
0.16;-0.115
0.17;-0.145
0.095;-0.1
0.02;-0.095
-0.04;-0.08
-0.09;-0.095
-0.16;-0.08
-0.18;-0.1
-0.185;-0.09
-0.21;-0.08
-0.23;-0.075
-0.255;-0.085
-0.255;-0.105
-0.235;-0.1
-0.23;-0.105
-0.245;-0.12
-0.255;-0.11
-0.29;-0.11
-0.28;-0.105
-0.16;-0.115
0.04;-0.15
0.335;-0.13
0.635;-0.06
0.915;0.01
1.25;-0.065
1.7;-0.49
2.21;-1.13
2.645;-1.77
2.775;-2.41
2.665;-3.05
2.43;-3.42
2.105;-3.245
1.65;-2.61
1.16;-2.015
0.745;-1.525
0.4;-1.19
0.03;-0.92
-0.325;-0.705
-0.545;-0.54
-0.625;-0.44
-0.63;-0.345
-0.58;-0.275
-0.545;-0.18
-0.51;-0.115
-0.485;-0.015
-0.47;0.035
-0.46;0.095
-0.425;0.13
-0.445;0.17
-0.45;0.19
-0.41;0.21
-0.41;0.205
-0.43;0.235
-0.43;0.245
-0.435;0.275
-0.445;0.27
-0.405;0.285
-0.41;0.295
-0.38;0.315
-0.395;0.315
-0.39;0.345
-0.385;0.35
-0.4;0.375
-0.37;0.395
-0.39;0.405
-0.36;0.42
-0.375;0.455
-0.36;0.465
-0.365;0.495
-0.38;0.525
-0.385;0.54
-0.39;0.58
-0.395;0.63
-0.385;0.675
-0.41;0.705
-0.415;0.75
-0.415;0.77
-0.44;0.795
-0.46;0.805
-0.46;0.815
-0.465;0.815
-0.48;0.84
-0.455;0.845
-0.42;0.84
-0.395;0.85
-0.335;0.83
-0.3;0.77
-0.24;0.73
-0.19;0.67
-0.14;0.61
-0.085;0.535
-0.005;0.45
-0.005;0.385
0.02;0.34
-0.035;0.295
-0.08;0.245
-0.115;0.2
-0.085;0.16
-0.085;0.12
-0.055;0.08
-0.05;0.025
-0.025;0.02
-0.045;0.02
-0.05;0.025
-0.075;0.02
-0.08;0.005
-0.08;0.005
-0.065;0.005
-0.045;-0.005
-0.06;-0.015
-0.06;0.025
-0.085;0
-0.065;-0.01
-0.095;0
-0.09;0.025
-0.1;0.01
-0.105;0.01
-0.1;-0.015
-0.105;-0.015
-0.11;-0.01
-0.115;0
-0.1;-0.03
-0.08;-0.01
-0.055;-0.005
-0.035;-0.02
-0.06;-0.035
-0.11;-0.025
-0.12;-0.015
-0.1;-0.025
-0.08;-0.025
-0.05;-0.04
-0.04;-0.06
-0.05;-0.065
-0.07;-0.035
-0.07;-0.06
-0.05;-0.05
-0.02;-0.055
0.04;-0.055
0.08;-0.05
0.11;-0.03
0.14;-0.02
0.15;0
0.175;0.025
0.195;0.045
0.195;0.02
0.215;0.035
0.245;-0.005
0.3;-0.025
0.33;-0.07
0.285;-0.075
0.3;-0.08
0.29;-0.095
0.285;-0.13
0.305;-0.14
0.3;-0.14
0.25;-0.135
0.18;-0.135
0.12;-0.135
0.075;-0.13
-0.005;-0.125
-0.055;-0.1
-0.07;-0.1
-0.075;-0.105
-0.09;-0.12
-0.05;-0.125
-0.065;-0.145
-0.055;-0.13
-0.085;-0.14
-0.14;-0.155
-0.18;-0.13
-0.18;-0.13
-0.12;-0.145
0.025;-0.19
0.25;-0.18
0.535;-0.175
0.785;-0.085
1.005;-0.03
1.28;-0.195
1.715;-0.635
2.255;-1.255
2.655;-1.895
2.745;-2.505
2.585;-3.025
2.33;-3.325
1.975;-3.1
1.5;-2.525
1.015;-1.955
0.64;-1.535
0.32;-1.205
-0.015;-0.98
-0.31;-0.775
-0.45;-0.635
-0.53;-0.51
-0.53;-0.425
-0.49;-0.345
-0.445;-0.26
-0.385;-0.17
-0.36;-0.07
-0.32;-0.03
-0.31;0.025
-0.295;0.055
-0.285;0.085
-0.27;0.115
-0.295;0.145
-0.3;0.145
-0.32;0.165
-0.325;0.185
-0.31;0.175
-0.305;0.195
-0.3;0.2
-0.305;0.215
-0.315;0.24
-0.3;0.245
-0.28;0.29
-0.28;0.28
-0.28;0.275
-0.285;0.3
-0.27;0.325
-0.3;0.36
-0.29;0.385
-0.28;0.42
-0.3;0.46
-0.32;0.485
-0.375;0.505
-0.395;0.49
-0.4;0.53
-0.42;0.58
-0.42;0.67
-0.41;0.725
-0.425;0.74
-0.425;0.735
-0.455;0.735
-0.46;0.705
-0.485;0.745
-0.495;0.84
-0.465;0.88
-0.42;0.875
-0.385;0.79
-0.365;0.765
-0.345;0.715
-0.295;0.66
-0.26;0.635
-0.225;0.605
-0.16;0.575
-0.13;0.495
-0.095;0.385
-0.09;0.27
-0.105;0.2
-0.105;0.18
-0.095;0.18
-0.055;0.205
-0.025;0.145
-0.005;0.09
0.005;0.005
0;-0.03
-0.035;-0.045
-0.025;-0.035
-0.035;-0.065
-0.04;-0.01
-0.045;0
-0.05;-0.015
-0.045;-0.02
-0.06;-0.025
-0.04;-0.02
-0.06;-0.02
-0.07;-0.01
-0.07;-0.02
-0.075;-0.055
-0.095;-0.04
-0.08;-0.045
-0.1;-0.04
-0.105;-0.04
-0.115;-0.02
-0.11;-0.03
-0.11;-0.015
-0.1;-0.015
-0.075;-0.05
-0.105;-0.03
-0.095;-0.04
-0.115;-0.025
-0.115;-0.035
-0.085;-0.025
-0.1;-0.035
-0.095;-0.04
-0.085;-0.07
-0.08;-0.08
-0.07;-0.075
-0.065;-0.08
-0.06;-0.07
-0.03;-0.05
0;-0.06
0.055;-0.05
0.075;-0.065
0.105;-0.025
0.135;-0.02
0.155;-0.02
0.17;0.005
0.18;0.025
0.185;0.015
0.2;0.015
0.235;-0.035
0.235;-0.07
0.23;-0.075
0.24;-0.105
0.225;-0.125
0.23;-0.14
0.245;-0.155
0.245;-0.175
0.19;-0.13
0.13;-0.135
0.075;-0.11
0.02;-0.135
-0.05;-0.11
-0.13;-0.085
-0.145;-0.075
-0.145;-0.025
-0.125;0
-0.115;-0.005
-0.09;-0.105
-0.065;-0.15
-0.075;-0.16
-0.1;-0.155
-0.145;-0.16
-0.16;-0.17
-0.13;-0.155
0.01;-0.19
0.22;-0.18
0.475;-0.17
0.7;-0.08
0.94;-0.04
1.27;-0.255
1.745;-0.735
2.29;-1.375
2.71;-2.015
2.76;-2.655
2.57;-3.21
2.33;-3.455
1.96;-3.125
1.49;-2.49
1.015;-1.855
0.65;-1.4
0.32;-1.085
0.015;-0.88
-0.265;-0.7
-0.43;-0.6
-0.525;-0.48
-0.495;-0.405
-0.455;-0.33
-0.41;-0.245
-0.4;-0.16
-0.365;-0.075
-0.35;-0.005
-0.335;0.075
-0.335;0.085
-0.315;0.125
-0.32;0.14
-0.315;0.155
-0.305;0.155
-0.305;0.175
-0.315;0.19
-0.32;0.2
-0.33;0.215
-0.32;0.245
-0.325;0.25
-0.31;0.255
-0.305;0.26
-0.31;0.28
-0.305;0.31
-0.29;0.315
-0.3;0.325
-0.305;0.33
-0.295;0.36
-0.305;0.375
-0.32;0.405
-0.315;0.44
-0.325;0.46
-0.335;0.485
-0.355;0.525
-0.375;0.55
-0.39;0.565
-0.4;0.595
-0.41;0.65
-0.425;0.69
-0.47;0.71
-0.46;0.745
-0.475;0.77
-0.48;0.8
-0.48;0.805
-0.46;0.815
-0.43;0.815
-0.42;0.82
-0.4;0.775
-0.36;0.75
-0.335;0.675
-0.295;0.61
-0.245;0.515
-0.21;0.435
-0.17;0.375
-0.155;0.325
-0.145;0.26
-0.13;0.185
-0.12;0.12
-0.1;0.075
-0.115;0.055
-0.115;0.005
-0.13;0
-0.115;-0.05
-0.11;-0.06
-0.085;-0.07
-0.1;-0.075
-0.095;-0.075
-0.095;-0.08
-0.15;-0.08
-0.195;-0.075
-0.215;-0.08
-0.21;-0.07
-0.195;-0.09
-0.19;-0.095
-0.19;-0.11
-0.195;-0.105
-0.19;-0.095
-0.185;-0.09
-0.19;-0.08
-0.2;-0.095
-0.185;-0.085
-0.14;-0.08
-0.09;-0.06
-0.055;-0.05
0.005;-0.03
0.04;-0.005
0.115;0.025
0.115;0.06
0.105;0.09
0.065;0.135
0.11;0.18
0.195;0.15
0.31;0.17
0.5;0.19
0.73;0.255
1.005;0.355
1.275;0.49
1.535;0.685
1.805;0.895
2.09;1.095
2.34;1.33
2.445;1.565
2.495;1.835
2.51;2.08
2.525;2.155
2.575;2.08
2.565;1.885
2.52;1.7
2.475;1.515
2.395;1.265
2.285;0.925
2.215;0.565
2.255;0.22
2.355;-0.105
2.345;-0.365
2.05;-0.48
1.5;-0.505
0.87;-0.44
0.27;-0.42
-0.175;-0.4
-0.49;-0.375
-0.645;-0.39
-0.77;-0.42
-0.835;-0.49
-0.895;-0.56
-0.95;-0.6
-0.97;-0.595
-0.99;-0.615
-1.01;-0.6
-1.045;-0.63
-1.035;-0.64
-1.065;-0.64
-1.1;-0.66
-1.11;-0.675
-1.14;-0.68
-1.165;-0.695
-1.16;-0.7
-1.195;-0.75
-1.215;-0.775
-1.225;-0.775
-1.27;-0.785
-1.275;-0.79
-1.3;-0.805
-1.315;-0.83
-1.315;-0.85
-1.34;-0.88
-1.35;-0.89
-1.38;-0.87
-1.405;-0.905
-1.43;-0.905
-1.435;-0.92
-1.475;-0.92
-1.49;-0.945
-1.48;-0.945
-1.525;-0.97
-1.52;-0.925
-1.495;-0.935
-1.47;-0.9
-1.455;-0.895
-1.38;-0.875
-1.33;-0.835
-1.3;-0.795
-1.24;-0.75
-1.175;-0.695
-1.115;-0.615
-1.03;-0.56
-0.985;-0.45
-0.915;-0.4
-0.87;-0.32
-0.82;-0.265
-0.775;-0.215
-0.73;-0.18
-0.7;-0.14
-0.675;-0.12
-0.625;-0.13
-0.585;-0.125
-0.565;-0.12
-0.53;-0.11
-0.505;-0.11
-0.49;-0.125
-0.47;-0.125
-0.46;-0.115
-0.46;-0.125
-0.435;-0.115
-0.43;-0.105
-0.4;-0.12
-0.415;-0.11
-0.415;-0.11
-0.44;-0.12
-0.435;-0.115
-0.415;-0.125
-0.405;-0.14
-0.39;-0.125
-0.395;-0.145
-0.39;-0.135
-0.4;-0.155
-0.415;-0.13
-0.38;-0.115
-0.41;-0.145
-0.395;-0.12
-0.395;-0.14
-0.4;-0.165
-0.4;-0.16
-0.395;-0.16
-0.375;-0.15
-0.405;-0.165
-0.395;-0.175
-0.38;-0.185
-0.36;-0.175
-0.39;-0.185
-0.415;-0.165
-0.415;-0.175
-0.41;-0.195
-0.395;-0.19
-0.39;-0.18
-0.395;-0.185
-0.395;-0.165
-0.385;-0.185
-0.415;-0.185
-0.415;-0.205
-0.395;-0.205
-0.415;-0.2
-0.435;-0.21
-0.435;-0.205
-0.41;-0.215
-0.41;-0.21
-0.43;-0.21
-0.42;-0.215
-0.45;-0.19
-0.43;-0.205
-0.415;-0.21
-0.445;-0.2
-0.445;-0.21
-0.46;-0.195
-0.455;-0.235
-0.445;-0.23
-0.455;-0.215
-0.46;-0.24
-0.485;-0.225
-0.465;-0.235
-0.49;-0.23
-0.465;-0.24
-0.46;-0.245
-0.455;-0.25
-0.46;-0.23
-0.47;-0.235
-0.48;-0.225
-0.465;-0.235
-0.46;-0.26
-0.465;-0.245
-0.46;-0.235
-0.41;-0.23
-0.36;-0.21
-0.335;-0.23
-0.33;-0.215
-0.315;-0.18
-0.27;-0.175
-0.235;-0.15
-0.22;-0.15
-0.21;-0.13
-0.21;-0.15
-0.185;-0.16
-0.16;-0.185
-0.15;-0.23
-0.155;-0.245
-0.185;-0.25
-0.16;-0.28
-0.15;-0.32
-0.145;-0.305
-0.185;-0.31
-0.235;-0.29
-0.325;-0.29
-0.395;-0.27
-0.43;-0.265
-0.48;-0.28
-0.53;-0.245
-0.57;-0.26
-0.585;-0.28
-0.595;-0.27
-0.605;-0.31
-0.59;-0.31
-0.585;-0.29
-0.61;-0.295
-0.655;-0.285
-0.665;-0.285
-0.62;-0.305
-0.47;-0.325
-0.285;-0.35
-0.01;-0.36
0.225;-0.275
0.47;-0.205
0.785;-0.315
1.24;-0.715
1.775;-1.355
2.22;-1.995
2.325;-2.635
2.17;-3.185
1.92;-3.53
1.565;-3.465
1.075;-2.925
0.595;-2.33
0.17;-1.865
-0.19;-1.5
-0.535;-1.23
-0.83;-1.025
-1;-0.855
-1.065;-0.765
-1.085;-0.655
-1.055;-0.595
-0.99;-0.475
-0.945;-0.395
-0.89;-0.295
-0.885;-0.235
-0.92;-0.19
-0.94;-0.13
-0.955;-0.1
-0.96;-0.08
-0.955;-0.08
-0.945;-0.07
-0.92;-0.06
-0.925;-0.06
-0.89;-0.065
-0.915;-0.05
-0.92;-0.045
-0.945;0
-0.945;0.01
-0.94;-0.015
-0.93;-0.015
-0.89;0.005
-0.9;0.025
-0.895;0.035
-0.915;0.07
-0.895;0.075
-0.905;0.105
-0.895;0.11
-0.92;0.11
-0.965;0.105
-0.965;0.13
-0.95;0.185
-0.98;0.19
-0.98;0.23
-0.95;0.27
-0.97;0.28
-0.995;0.35
-1.025;0.365
-1.04;0.405
-1.065;0.415
-1.06;0.455
-1.085;0.465
-1.08;0.49
-1.065;0.55
-1.045;0.575
-1.04;0.59
-1.045;0.635
-1.005;0.61
-0.975;0.535
-0.95;0.515
-0.91;0.465
-0.88;0.44
-0.855;0.365
-0.81;0.335
-0.815;0.245
-0.805;0.175
-0.78;0.09
-0.765;0.035
-0.75;-0.02
-0.745;-0.065
-0.735;-0.11
-0.765;-0.13
-0.79;-0.185
-0.825;-0.2
-0.855;-0.205
-0.835;-0.205
-0.825;-0.245
-0.855;-0.265
-0.89;-0.275
-0.9;-0.29
-0.93;-0.23
-0.885;-0.22
-0.87;-0.23
-0.865;-0.29
-0.875;-0.31
-0.89;-0.355
-0.94;-0.36
-0.945;-0.32
-0.925;-0.305
-0.925;-0.285
-0.945;-0.3
-0.955;-0.335
-0.955;-0.33
-0.94;-0.34
-0.955;-0.31
-0.95;-0.315
-0.935;-0.325
-0.935;-0.335
-0.905;-0.3
-0.94;-0.31
-0.93;-0.295
-0.96;-0.32
-0.95;-0.31
-0.945;-0.315
-0.935;-0.325
-0.93;-0.37
-0.915;-0.35
-0.9;-0.35
-0.84;-0.32
-0.8;-0.295
-0.755;-0.265
-0.745;-0.27
-0.705;-0.265
-0.68;-0.23
-0.665;-0.23
-0.625;-0.23
-0.625;-0.245
-0.585;-0.285
-0.57;-0.305
-0.595;-0.32
-0.57;-0.355
-0.56;-0.415
-0.55;-0.45
-0.51;-0.45
-0.575;-0.46
-0.665;-0.435
-0.735;-0.4
-0.775;-0.395
-0.865;-0.395
-0.915;-0.4
-0.94;-0.365
-0.92;-0.39
-0.945;-0.39
-0.98;-0.42
-1.005;-0.42
-1.04;-0.385
-1.02;-0.37
-1.015;-0.385
-1.045;-0.39
-1.04;-0.41
-1;-0.43
-0.89;-0.465
-0.715;-0.475
-0.46;-0.5
-0.18;-0.47
0.065;-0.375
0.32;-0.365
0.72;-0.63
1.3;-1.17
1.8;-1.81
1.96;-2.45
1.805;-3.09
1.52;-3.515
1.16;-3.53
0.7;-3.05
0.18;-2.415
-0.255;-1.92
-0.59;-1.575
-0.93;-1.305
-1.225;-1.115
-1.425;-0.955
-1.46;-0.83
-1.46;-0.78
-1.435;-0.715
-1.39;-0.63
-1.34;-0.49
-1.28;-0.4
-1.26;-0.315
-1.26;-0.27
-1.28;-0.235
-1.29;-0.22
-1.31;-0.205
-1.315;-0.18
-1.29;-0.18
-1.305;-0.17
-1.28;-0.145
-1.27;-0.11
-1.25;-0.08
-1.245;-0.065
-1.245;-0.065
-1.265;-0.07
-1.235;-0.08
-1.245;-0.06
-1.265;-0.055
-1.265;-0.035
-1.265;0
-1.28;0.01
-1.255;0.035
-1.245;0.09
-1.24;0.085
-1.24;0.095
-1.26;0.13
-1.28;0.185
-1.28;0.22
-1.315;0.285
-1.355;0.315
-1.385;0.335
-1.39;0.36
-1.38;0.39
-1.4;0.425
-1.395;0.475
-1.41;0.525
-1.425;0.555
-1.44;0.565
-1.435;0.575
-1.405;0.565
-1.375;0.535
-1.34;0.53
-1.315;0.465
-1.26;0.39
-1.225;0.295
-1.185;0.23
-1.155;0.14
-1.125;0.065
-1.13;0.025
-1.12;-0.015
-1.11;-0.065
-1.11;-0.105
-1.1;-0.175
-1.1;-0.25
-1.12;-0.295
-1.12;-0.325
-1.12;-0.305
-1.115;-0.33
-1.105;-0.315
-1.11;-0.325
-1.11;-0.35
-1.125;-0.37
-1.115;-0.39
-1.105;-0.375
-1.16;-0.38
-1.18;-0.36
-1.175;-0.36
-1.155;-0.375
-1.185;-0.37
-1.195;-0.37
-1.19;-0.385
-1.175;-0.37
-1.175;-0.375
-1.18;-0.385
-1.205;-0.38
-1.195;-0.36
-1.17;-0.37
-1.18;-0.365
-1.165;-0.4
-1.145;-0.41
-1.15;-0.39
-1.135;-0.415
-1.14;-0.4
-1.15;-0.4
-1.17;-0.4
-1.18;-0.42
-1.175;-0.4
-1.18;-0.405
-1.16;-0.395
-1.145;-0.4
-1.135;-0.4
-1.11;-0.425
-1.09;-0.43
-1.06;-0.4
-1.025;-0.4
-0.945;-0.38
-0.95;-0.355
-0.93;-0.335
-0.9;-0.315
-0.89;-0.31
-0.89;-0.32
-0.87;-0.33
-0.835;-0.325
-0.825;-0.375
-0.82;-0.41
-0.82;-0.435
-0.82;-0.435
-0.79;-0.465
-0.795;-0.485
-0.815;-0.5
-0.855;-0.495
-0.92;-0.48
-0.975;-0.44
-1.015;-0.44
-1.065;-0.45
-1.14;-0.445
-1.185;-0.43
-1.185;-0.44
-1.2;-0.425
-1.23;-0.445
-1.225;-0.45
-1.21;-0.46
-1.2;-0.475
-1.2;-0.445
-1.235;-0.465
-1.26;-0.455
-1.245;-0.44
-1.185;-0.47
-1.005;-0.485
-0.735;-0.5
-0.465;-0.46
-0.215;-0.395
0.045;-0.39
0.435;-0.655
0.95;-1.195
1.465;-1.835
1.755;-2.475
1.735;-3.115
1.55;-3.575
1.25;-3.67
0.805;-3.185
0.29;-2.55
-0.175;-1.915
-0.545;-1.53
-0.895;-1.305
-1.22;-1.105
-1.48;-0.97
-1.575;-0.845
-1.585;-0.77
-1.555;-0.68
-1.5;-0.6
-1.44;-0.51
-1.44;-0.43
-1.425;-0.345
-1.38;-0.3
-1.38;-0.235
-1.4;-0.21
-1.395;-0.2
-1.375;-0.175
-1.37;-0.14
-1.375;-0.12
-1.355;-0.105
-1.355;-0.105
-1.345;-0.095
-1.345;-0.1
-1.33;-0.07
-1.34;-0.04
-1.335;-0.025
-1.335;-0.01
-1.34;0.005
-1.335;0.005
-1.31;0.01
-1.305;0.04
-1.3;0.06
-1.315;0.08
-1.335;0.095
-1.34;0.105
-1.345;0.135
-1.345;0.185
-1.345;0.215
-1.365;0.26
-1.365;0.295
-1.37;0.31
-1.375;0.33
-1.41;0.375
-1.44;0.395
-1.465;0.435
-1.455;0.45
-1.47;0.49
-1.47;0.515
-1.46;0.545
-1.44;0.565
-1.435;0.545
-1.39;0.535
-1.35;0.5
-1.305;0.47
-1.27;0.405
-1.205;0.33
-1.15;0.25
-1.095;0.2
-1.08;0.115
-1.06;0.055
-1.035;0
-1.02;-0.05
-1;-0.1
-1;-0.125
-1;-0.175
-0.98;-0.22
-0.98;-0.235
-0.985;-0.24
-0.965;-0.265
-0.97;-0.275
-0.985;-0.27
-1.025;-0.28
-1.01;-0.27
-1.005;-0.27
-1.015;-0.275
-1.005;-0.295
-1.005;-0.27
-1.005;-0.275
-1.025;-0.265
-1.035;-0.285
-1.03;-0.275
-1.015;-0.275
-1.05;-0.295
-1.04;-0.265
-1.06;-0.26
-1.05;-0.3
-1.07;-0.285
-1.06;-0.28
-1.045;-0.26
-1.055;-0.27
-1.045;-0.295
-1.045;-0.26
-1.045;-0.285
-1.035;-0.28
-1.035;-0.295
-1.035;-0.285
-1.03;-0.31
-1.02;-0.31
-1.015;-0.3
-1.01;-0.295
-0.985;-0.28
-0.94;-0.295
-0.895;-0.295
-0.89;-0.27
-0.84;-0.285
-0.825;-0.265
-0.8;-0.25
-0.76;-0.245
-0.74;-0.215
-0.73;-0.205
-0.7;-0.18
-0.665;-0.22
-0.62;-0.21
-0.605;-0.265
-0.61;-0.285
-0.61;-0.31
-0.595;-0.32
-0.59;-0.335
-0.55;-0.365
-0.54;-0.395
-0.57;-0.385
-0.64;-0.37
-0.67;-0.34
-0.735;-0.32
-0.795;-0.345
-0.845;-0.345
-0.88;-0.32
-0.905;-0.315
-0.95;-0.33
-0.925;-0.345
-0.94;-0.33
-0.93;-0.35
-0.93;-0.365
-0.93;-0.355
-0.945;-0.355
-0.985;-0.365
-0.975;-0.39
-0.88;-0.375
-0.705;-0.405
-0.425;-0.43
-0.13;-0.395
0.14;-0.31
0.415;-0.325
0.855;-0.61
1.405;-1.185
1.935;-1.825
2.185;-2.465
2.095;-3.105
1.855;-3.51
1.515;-3.545
1.04;-3.11
0.49;-2.475
0.04;-1.9
-0.345;-1.535
-0.705;-1.26
-1.01;-1.07
-1.23;-0.915
-1.305;-0.78
-1.28;-0.68
-1.235;-0.59
-1.18;-0.5
-1.135;-0.4
-1.125;-0.315
-1.1;-0.23
-1.075;-0.175
-1.075;-0.14
-1.07;-0.085
-1.07;-0.095
-1.055;-0.06
-1.06;-0.035
-1.075;-0.01
-1.07;-0.015
-1.055;0
-1.09;0.025
-1.09;0.025
-1.1;0.03
-1.08;0.055
-1.06;0.06
-1.055;0.085
-1.04;0.1
-1.035;0.1
-1.005;0.145
-0.99;0.175
-1.01;0.165
-1.02;0.215
-1.03;0.215
-1.04;0.27
-1.065;0.27
-1.065;0.305
-1.09;0.35
-1.095;0.385
-1.1;0.43
-1.125;0.49
-1.14;0.515
-1.125;0.535
-1.13;0.57
-1.12;0.595
-1.145;0.61
-1.16;0.66
-1.195;0.705
-1.18;0.71
-1.17;0.715
-1.155;0.69
-1.115;0.69
-1.08;0.65
-1.03;0.6
-0.99;0.535
-0.925;0.44
-0.86;0.37
-0.835;0.29
-0.785;0.215
-0.775;0.135
-0.745;0.07
-0.725;0.02
-0.77;-0.03
-0.76;-0.09
-0.765;-0.09
-0.74;-0.13
-0.735;-0.165
-0.71;-0.185
-0.695;-0.185
-0.705;-0.205
-0.725;-0.185
-0.74;-0.185
-0.755;-0.2
-0.76;-0.225
-0.78;-0.225
-0.8;-0.225
-0.8;-0.2
-0.755;-0.195
-0.775;-0.21
-0.795;-0.225
-0.795;-0.225
-0.79;-0.21
-0.795;-0.22
-0.77;-0.225
-0.765;-0.21
-0.77;-0.21
-0.79;-0.215
-0.77;-0.21
-0.75;-0.225
-0.73;-0.22
-0.745;-0.215
-0.765;-0.22
-0.75;-0.21
-0.74;-0.225
-0.74;-0.215
-0.74;-0.195
-0.755;-0.21
-0.745;-0.2
-0.745;-0.22
-0.71;-0.22
-0.7;-0.22
-0.66;-0.19
-0.615;-0.19
-0.58;-0.21
-0.545;-0.195
-0.505;-0.185
-0.47;-0.165
-0.445;-0.145
-0.435;-0.12
-0.415;-0.11
-0.355;-0.09
-0.34;-0.125
-0.32;-0.15
-0.33;-0.18
-0.32;-0.18
-0.3;-0.21
-0.29;-0.225
-0.265;-0.235
-0.25;-0.25
-0.25;-0.255
-0.305;-0.265
-0.36;-0.225
-0.425;-0.225
-0.455;-0.24
-0.51;-0.225
-0.545;-0.2
-0.595;-0.21
-0.59;-0.205
-0.59;-0.215
-0.595;-0.21
-0.575;-0.24
-0.57;-0.225
-0.55;-0.22
-0.56;-0.23
-0.605;-0.225
-0.615;-0.205
-0.58;-0.21
-0.46;-0.24
-0.24;-0.265
0.03;-0.255
0.35;-0.23
0.64;-0.13
1.015;-0.195
1.5;-0.575
2.065;-1.185
2.535;-1.825
2.715;-2.465
2.63;-3.105
2.4;-3.47
2.08;-3.385
1.555;-2.785
0.975;-2.15
0.55;-1.575
0.165;-1.215
-0.19;-1
-0.535;-0.815
-0.745;-0.655
-0.84;-0.52
-0.84;-0.45
-0.82;-0.39
-0.755;-0.295
-0.725;-0.2
-0.69;-0.115
-0.675;-0.02
-0.655;0.035
-0.65;0.035
-0.64;0.085
-0.625;0.125
-0.625;0.14
-0.62;0.14
-0.625;0.17
-0.615;0.19
-0.625;0.2
-0.615;0.21
-0.6;0.23
-0.585;0.255
-0.585;0.27
-0.585;0.275
-0.58;0.305
-0.6;0.31
-0.605;0.34
-0.59;0.335
-0.585;0.375
-0.59;0.39
-0.6;0.41
-0.59;0.45
-0.615;0.46
-0.62;0.48
-0.62;0.52
-0.62;0.545
-0.62;0.57
-0.65;0.6
-0.66;0.635
-0.67;0.67
-0.69;0.7
-0.7;0.715
-0.705;0.78
-0.7;0.805
-0.695;0.83
-0.705;0.835
-0.685;0.87
-0.67;0.895
-0.645;0.905
-0.585;0.885
-0.565;0.825
-0.455;0.785
-0.41;0.725
-0.375;0.66
-0.335;0.6
-0.295;0.525
-0.26;0.445
-0.235;0.38
-0.21;0.29
-0.195;0.24
-0.17;0.205
-0.155;0.155
-0.16;0.115
-0.17;0.09
-0.165;0.07
-0.18;0.045
-0.155;0.025
-0.165;0.02
-0.155;0.005
-0.16;0.01
-0.16;-0.01
-0.17;0
-0.16;0
-0.17;-0.005
-0.18;-0.005
-0.2;-0.01
-0.21;0.005
-0.215;-0.01
-0.215;0
-0.23;-0.005
-0.225;-0.02
-0.225;-0.02
-0.255;-0.02
-0.26;-0.02
-0.25;0
-0.24;0
-0.255;-0.005
-0.24;-0.01
-0.24;-0.035
-0.225;-0.015
-0.225;-0.025
-0.235;-0.01
-0.225;-0.025
-0.23;-0.01
-0.23;-0.03
-0.205;-0.025
-0.195;-0.06
-0.18;-0.045
-0.19;-0.055
-0.15;-0.06
-0.11;-0.065
-0.055;-0.055
-0.045;-0.055
-0.03;-0.02
0;-0.015
0.055;0.01
0.115;0.02
0.13;0.045
0.155;0.035
0.185;0.055
0.235;0.03
0.285;0.01
0.27;-0.01
0.265;-0.025
0.25;-0.01
0.245;-0.035
0.255;-0.045
0.285;-0.08
0.275;-0.1
0.205;-0.095
0.135;-0.085
0.085;-0.07
0.045;-0.07
-0.005;-0.07
-0.04;-0.045
-0.075;-0.03
-0.08;-0.035
-0.085;-0.04
-0.075;-0.06
-0.06;-0.08
-0.07;-0.07
-0.07;-0.07
-0.09;-0.08
-0.125;-0.05
-0.14;-0.06
-0.07;-0.06
0.09;-0.08
0.385;-0.12
0.755;-0.12
1.09;-0.06
1.43;0.03
1.87;-0.06
2.37;-0.465
2.875;-1.105
3.205;-1.745
3.235;-2.385
3.085;-3.025
2.825;-3.325
2.425;-3.165
1.895;-2.57
1.375;-1.985
0.94;-1.535
0.525;-1.17
0.155;-0.91
-0.15;-0.695
-0.34;-0.525
-0.395;-0.41
-0.39;-0.335
-0.36;-0.225
-0.315;-0.15
-0.295;-0.055
-0.265;0.025
-0.26;0.08
-0.255;0.125
-0.25;0.175
-0.24;0.21
-0.22;0.22
-0.205;0.24
-0.215;0.27
-0.235;0.275
-0.22;0.31
-0.195;0.325
-0.16;0.325
-0.145;0.36
-0.16;0.375
-0.175;0.395
-0.17;0.425
-0.16;0.43
-0.15;0.47
-0.14;0.465
-0.13;0.48
-0.11;0.515
-0.1;0.51
-0.09;0.555
-0.07;0.59
-0.08;0.605
-0.07;0.625
-0.11;0.675
-0.135;0.7
-0.125;0.74
-0.12;0.785
-0.13;0.825
-0.15;0.865
-0.14;0.87
-0.16;0.915
-0.185;0.96
-0.175;0.985
-0.145;1
-0.14;1.01
-0.17;1.025
-0.14;1.015
-0.11;0.995
-0.095;1.01
-0.035;0.95
0.025;0.9
0.09;0.81
0.135;0.73
0.16;0.675
0.17;0.585
0.175;0.51
0.2;0.47
0.215;0.395
0.22;0.35
0.23;0.315
0.21;0.285
0.225;0.26
0.225;0.235
0.26;0.205
0.275;0.185
0.265;0.17
0.24;0.16
0.245;0.155
0.245;0.155
0.245;0.165
0.24;0.165
0.25;0.14
0.235;0.14
0.23;0.145
0.215;0.165
0.23;0.13
0.26;0.135
0.25;0.15
0.235;0.14
0.225;0.165
0.245;0.155
0.27;0.165
0.26;0.165
0.245;0.17
0.27;0.165
0.255;0.15
0.275;0.13
0.275;0.135
0.275;0.13
0.295;0.145
0.325;0.14
0.3;0.14
0.31;0.15
0.32;0.14
0.335;0.135
0.32;0.145
0.34;0.14
0.375;0.135
0.425;0.135
0.46;0.125
0.485;0.115
0.495;0.155
0.535;0.19
0.535;0.185
0.555;0.21
0.585;0.23
0.59;0.23
0.625;0.215
0.675;0.21
0.72;0.2
0.74;0.165
0.725;0.175
0.695;0.14
0.69;0.14
0.74;0.11
0.76;0.095
0.71;0.08
0.655;0.11
0.605;0.095
0.54;0.13
0.505;0.125
0.46;0.1
0.42;0.12
0.4;0.14
0.37;0.13
0.37;0.115
0.35;0.15
0.365;0.135
0.38;0.12
0.385;0.105
0.355;0.12
0.33;0.115
0.345;0.13
0.395;0.12
0.555;0.085
0.825;0.06
1.155;0.07
1.45;0.14
1.725;0.235
2.145;0.105
2.68;-0.29
3.205;-0.87
3.45;-1.505
3.345;-2.085
3.1;-2.6
2.825;-2.855
2.44;-2.63
1.97;-2.06
1.545;-1.515
1.145;-1.075
0.775;-0.75
0.44;-0.535
0.175;-0.355
0.055;-0.24
0.045;-0.15
0.085;-0.065
0.135;-0.01
0.17;0.065
0.2;0.14
0.215;0.19
0.235;0.22
0.235;0.28
0.21;0.3
0.22;0.335
0.235;0.355
0.25;0.385
0.245;0.375
0.27;0.39
0.265;0.375
0.285;0.405
0.29;0.435
0.285;0.445
0.285;0.46
0.285;0.445
0.26;0.475
0.27;0.47
0.29;0.48
0.285;0.505
0.285;0.49
0.305;0.53
0.3;0.555
0.285;0.57
0.27;0.6
0.26;0.635
0.25;0.68
0.25;0.67
0.24;0.695
0.225;0.735
0.215;0.775
0.19;0.79
0.18;0.83
0.175;0.845
0.18;0.87
0.175;0.9
0.165;0.935
0.175;0.96
0.18;0.935
0.2;0.955
0.205;0.92
0.255;0.905
0.305;0.905
0.35;0.855
0.405;0.78
0.445;0.725
0.49;0.67
0.515;0.6
0.55;0.515
0.555;0.5
0.58;0.455
0.58;0.395
0.565;0.335
0.595;0.32
0.6;0.27
0.6;0.255
0.595;0.225
0.595;0.22
0.595;0.19
0.605;0.185
0.595;0.18
0.6;0.185
0.605;0.165
0.59;0.155
0.58;0.15
0.57;0.155
0.565;0.175
0.58;0.155
0.585;0.185
0.575;0.16
0.555;0.16
0.535;0.13
0.55;0.145
0.545;0.15
0.53;0.17
0.525;0.17
0.52;0.155
0.505;0.155
0.515;0.16
0.515;0.16
0.505;0.15
0.495;0.155
0.505;0.155
0.49;0.12
0.515;0.135
0.51;0.12
0.495;0.12
0.52;0.115
0.54;0.105
0.525;0.11
0.545;0.13
0.55;0.115
0.6;0.12
0.66;0.12
0.655;0.11
0.71;0.13
0.735;0.15
0.725;0.175
0.73;0.195
0.755;0.2
0.79;0.21
0.81;0.19
0.845;0.175
0.845;0.115
0.835;0.1
0.845;0.075
0.855;0.07
0.85;0.04
0.855;0.015
0.865;0.015
0.835;0.015
0.745;0.03
0.675;0.04
0.655;0.03
0.58;0.035
0.53;0.045
0.5;0.055
0.49;0.07
0.465;0.06
0.46;0.055
0.43;0.035
0.45;0.03
0.45;0.025
0.45;0.03
0.42;0.025
0.395;0.01
0.425;0.03
0.545;0.015
0.745;-0.005
1.03;-0.015
1.31;0.03
1.58;0.11
1.89;0.065
2.365;-0.24
2.93;-0.815
3.375;-1.455
3.505;-2.095
3.335;-2.695
3.09;-3.09
2.72;-3.08
2.24;-2.565
1.765;-1.93
1.34;-1.415
0.97;-1.07
0.63;-0.81
0.305;-0.605
0.105;-0.455
0;-0.345
0;-0.26
0.025;-0.2
0.065;-0.1
0.085;-0.03
0.1;0.06
0.125;0.115
0.13;0.185
0.145;0.22
0.135;0.245
0.125;0.26
0.11;0.27
0.115;0.295
0.1;0.29
0.125;0.325
0.125;0.335
0.11;0.345
0.12;0.35
0.105;0.365
0.095;0.375
0.085;0.385
0.095;0.42
0.095;0.41
0.095;0.435
0.105;0.455
0.095;0.465
0.09;0.485
0.075;0.51
0.055;0.55
0.065;0.57
0.045;0.595
0.01;0.615
0;0.655
-0.02;0.665
-0.055;0.725
-0.05;0.775
-0.08;0.785
-0.1;0.82
-0.13;0.855
-0.13;0.89
-0.125;0.915
-0.15;0.945
-0.135;0.955
-0.16;0.965
-0.135;0.96
-0.115;0.955
-0.06;0.935
-0.045;0.845
0.045;0.805
0.07;0.74
0.095;0.68
0.14;0.61
0.18;0.505
0.195;0.46
0.21;0.39
0.215;0.32
0.215;0.255
0.2;0.225
0.2;0.175
0.195;0.13
0.205;0.09
0.2;0.075
0.185;0.05
0.175;0.07
0.165;0.045
0.135;0.025
0.15;0.025
0.14;0.045
0.105;0.05
0.11;0.01
0.11;-0.01
0.105;0.025
0.09;0
0.075;0.01
0.055;0.015
0.065;0.02
0.055;0.02
0.035;0
0.015;-0.005
0;0
0;-0.005
0;-0.015
0.005;-0.01
0;-0.015
0;-0.02
-0.03;-0.03
-0.025;-0.025
-0.03;-0.03
-0.045;-0.035
-0.06;-0.06
-0.045;-0.055
-0.06;-0.075
-0.04;-0.055
-0.05;-0.07
-0.04;-0.08
-0.035;-0.095
-0.035;-0.08
0.005;-0.105
0.055;-0.09
0.06;-0.09
0.07;-0.065
0.105;-0.055
0.12;-0.04
0.14;-0.01
0.14;-0.005
0.155;-0.005
0.17;-0.03
0.215;-0.055
0.21;-0.07
0.215;-0.115
0.18;-0.135
0.175;-0.14
0.18;-0.15
0.2;-0.175
0.18;-0.19
0.14;-0.21
0.04;-0.23
-0.025;-0.195
-0.105;-0.19
-0.14;-0.175
-0.19;-0.19
-0.225;-0.17
-0.27;-0.175
-0.29;-0.175
-0.325;-0.185
-0.32;-0.2
-0.32;-0.205
-0.29;-0.205
-0.34;-0.185
-0.39;-0.215
-0.43;-0.23
-0.425;-0.25
-0.325;-0.25
-0.145;-0.265
0.13;-0.28
0.42;-0.23
0.665;-0.16
1.02;-0.2
1.495;-0.475
2.035;-1.09
2.49;-1.73
2.635;-2.37
2.56;-3.01
2.35;-3.46
2.01;-3.485
1.505;-2.99
0.96;-2.36
0.49;-1.83
0.085;-1.47
-0.28;-1.175
-0.63;-0.965
-0.85;-0.79
-0.97;-0.67
-0.975;-0.585
-0.955;-0.495
-0.93;-0.425
-0.9;-0.335
-0.895;-0.23
-0.885;-0.15
-0.875;-0.105
-0.875;-0.06
-0.89;-0.055
-0.9;-0.02
-0.895;0
-0.915;0.015
-0.92;0.04
-0.91;0.035
-0.925;0.045
-0.925;0.06
-0.93;0.05
-0.935;0.085
-0.95;0.085
-0.965;0.09
-0.97;0.12
-0.975;0.115
-0.985;0.14
-0.99;0.155
-0.97;0.17
-1.005;0.18
-1.005;0.19
-1;0.225
-1.025;0.25
-1.05;0.29
-1.075;0.3
-1.075;0.325
-1.095;0.355
-1.12;0.395
-1.125;0.43
-1.15;0.45
-1.18;0.49
-1.22;0.53
-1.22;0.55
-1.245;0.565
-1.25;0.6
-1.255;0.605
-1.26;0.635
-1.25;0.62
-1.23;0.635
-1.19;0.59
-1.135;0.555
-1.12;0.505
-1.1;0.46
-1.03;0.375
-1.015;0.275
-0.98;0.19
-1.005;0.095
-0.985;0.035
-0.985;-0.03
-0.99;-0.085
-0.99;-0.125
-1.01;-0.185
-1.02;-0.23
-1.025;-0.255
-1.015;-0.28
-1.035;-0.315
-1.045;-0.3
-1.055;-0.31
-1.07;-0.325
-1.095;-0.33
-1.105;-0.33
-1.105;-0.35
-1.135;-0.35
-1.15;-0.375
-1.18;-0.36
-1.185;-0.345
-1.195;-0.37
-1.205;-0.385
-1.22;-0.375
-1.205;-0.36
-1.225;-0.38
-1.235;-0.375
-1.235;-0.375
-1.225;-0.385
-1.24;-0.39
-1.275;-0.39
-1.3;-0.4
-1.28;-0.385
-1.275;-0.41
-1.29;-0.405
-1.305;-0.41
-1.33;-0.43
-1.325;-0.41
-1.32;-0.415
-1.32;-0.43
-1.33;-0.435
-1.32;-0.43
-1.325;-0.445
-1.32;-0.445
-1.295;-0.425
-1.29;-0.435
-1.27;-0.45
-1.245;-0.445
-1.215;-0.425
-1.22;-0.405
-1.19;-0.405
-1.16;-0.375
-1.15;-0.37
-1.125;-0.35
-1.075;-0.37
-1.04;-0.38
-1.045;-0.405
-1.03;-0.44
-1.04;-0.45
-1.065;-0.485
-1.07;-0.465
-1.045;-0.505
-1.075;-0.505
-1.11;-0.545
-1.175;-0.53
-1.23;-0.535
-1.28;-0.505
-1.325;-0.52
-1.385;-0.525
-1.425;-0.535
-1.465;-0.51
-1.475;-0.515
-1.495;-0.52
-1.495;-0.525
-1.505;-0.54
-1.5;-0.565
-1.515;-0.55
-1.535;-0.545
-1.575;-0.54
-1.57;-0.56
-1.535;-0.565
-1.405;-0.585
-1.14;-0.61
-0.83;-0.595
-0.53;-0.54
-0.205;-0.46
0.245;-0.605
0.81;-1.04
1.37;-1.68
1.68;-2.32
1.635;-2.96
1.425;-3.47
1.08;-3.715
0.585;-3.49
0.02;-2.895
-0.46;-2.33
-0.86;-1.89
-1.23;-1.595
-1.65;-1.41
-1.925;-1.23
-2.04;-1.075
-2.065;-0.98
-2.05;-0.875
-1.985;-0.77
-1.91;-0.64
-1.885;-0.55
-1.84;-0.49
-1.855;-0.45
-1.855;-0.39
-1.85;-0.38
-1.83;-0.36
-1.825;-0.35
-1.81;-0.315
-1.84;-0.305
-1.825;-0.29
-1.85;-0.28
-1.865;-0.25
-1.845;-0.255
-1.83;-0.245
-1.835;-0.225
-1.825;-0.22
-1.81;-0.215
-1.81;-0.185
-1.8;-0.165
-1.82;-0.16
-1.825;-0.145
-1.815;-0.125
-1.8;-0.105
-1.815;-0.075
-1.83;-0.045
-1.84;-0.025
-1.85;-0.025
-1.85;0.03
-1.88;0.06
-1.895;0.075
-1.905;0.13
-1.925;0.17
-1.94;0.2
-1.945;0.24
-1.985;0.27
-1.98;0.26
-1.97;0.285
-1.97;0.315
-1.955;0.315
-1.955;0.3
-1.94;0.31
-1.91;0.285
-1.86;0.245
-1.83;0.18
-1.8;0.085
-1.715;0.06
-1.72;-0.02
-1.69;-0.105
-1.685;-0.185
-1.655;-0.23
-1.655;-0.295
-1.655;-0.35
-1.66;-0.385
-1.66;-0.425
-1.665;-0.455
-1.675;-0.495
-1.69;-0.505
-1.685;-0.51
-1.685;-0.535
-1.675;-0.56
-1.68;-0.545
-1.69;-0.555
-1.7;-0.56
-1.715;-0.575
-1.705;-0.555
-1.7;-0.57
-1.71;-0.585
-1.725;-0.575
-1.745;-0.59
-1.745;-0.59
-1.745;-0.58
-1.735;-0.575
-1.735;-0.575
-1.75;-0.575
-1.77;-0.59
-1.755;-0.56
-1.765;-0.57
-1.76;-0.57
-1.73;-0.585
-1.735;-0.575
-1.745;-0.565
-1.73;-0.58
-1.71;-0.575
-1.725;-0.59
-1.74;-0.6
-1.71;-0.6
-1.735;-0.595
-1.73;-0.59
-1.715;-0.6
-1.705;-0.64
-1.705;-0.65
-1.695;-0.635
-1.69;-0.64
-1.655;-0.62
-1.61;-0.615
-1.55;-0.625
-1.54;-0.605
-1.525;-0.59
-1.515;-0.57
-1.49;-0.57
-1.46;-0.55
-1.455;-0.535
-1.43;-0.55
-1.4;-0.56
-1.385;-0.59
-1.385;-0.625
-1.355;-0.615
-1.375;-0.655
-1.37;-0.68
-1.355;-0.7
-1.36;-0.705
-1.38;-0.745
-1.43;-0.725
-1.495;-0.695
-1.545;-0.685
-1.585;-0.7
-1.645;-0.71
-1.665;-0.7
-1.69;-0.67
-1.71;-0.7
-1.7;-0.715
-1.69;-0.695
-1.7;-0.71
-1.685;-0.74
-1.705;-0.725
-1.75;-0.725
-1.755;-0.725
-1.745;-0.755
-1.635;-0.75
-1.435;-0.78
-1.15;-0.795
-0.9;-0.73
-0.64;-0.635
-0.28;-0.67
0.21;-0.99
0.78;-1.515
1.24;-2.155
1.37;-2.775
1.225;-3.28
0.955;-3.655
0.56;-3.735
0.025;-3.345
-0.475;-2.745
-0.88;-2.24
-1.215;-1.995
-1.625;-1.75
-1.935;-1.54
-2.135;-1.355
-2.16;-1.26
-2.175;-1.12
-2.12;-1.015
-2.065;-0.92
-1.995;-0.825
-1.99;-0.755
-1.975;-0.645
-1.94;-0.59
-1.935;-0.535
-1.915;-0.52
-1.915;-0.51
-1.92;-0.5
-1.925;-0.45
-1.91;-0.415
-1.93;-0.425
-1.915;-0.41
-1.925;-0.39
-1.89;-0.38
-1.905;-0.36
-1.89;-0.36
-1.87;-0.37
-1.885;-0.335
-1.89;-0.32
-1.87;-0.305
-1.87;-0.295
-1.87;-0.25
-1.875;-0.26
-1.88;-0.235
-1.885;-0.24
-1.875;-0.185
-1.875;-0.15
-1.905;-0.125
-1.905;-0.11
-1.91;-0.07
-1.915;-0.04
-1.915;-0.005
-1.93;0.03
-1.97;0.05
-1.96;0.075
-1.965;0.095
-1.96;0.15
-1.96;0.16
-1.965;0.19
-1.95;0.2
-1.935;0.205
-1.9;0.215
-1.875;0.165
-1.845;0.135
-1.805;0.1
-1.765;0.04
-1.725;-0.03
-1.655;-0.075
-1.66;-0.16
-1.665;-0.22
-1.635;-0.275
-1.605;-0.33
-1.61;-0.38
-1.6;-0.425
-1.62;-0.465
-1.635;-0.505
-1.62;-0.5
-1.61;-0.54
-1.6;-0.535
-1.61;-0.555
-1.62;-0.565
-1.6;-0.57
-1.63;-0.58
-1.635;-0.6
-1.63;-0.595
-1.61;-0.57
-1.61;-0.565
-1.63;-0.59
-1.645;-0.585
-1.615;-0.585
-1.63;-0.6
-1.625;-0.59
-1.645;-0.59
-1.645;-0.555
-1.625;-0.57
-1.63;-0.57
-1.625;-0.56
-1.655;-0.59
-1.635;-0.59
-1.65;-0.58
-1.65;-0.565
-1.65;-0.55
-1.625;-0.59
-1.63;-0.595
-1.625;-0.6
-1.615;-0.58
-1.605;-0.595
-1.6;-0.57
-1.6;-0.585
-1.62;-0.59
-1.61;-0.6
-1.59;-0.575
-1.555;-0.59
-1.505;-0.62
-1.485;-0.59
-1.485;-0.61
-1.44;-0.59
-1.4;-0.555
-1.375;-0.525
-1.36;-0.535
-1.33;-0.495
-1.31;-0.485
-1.31;-0.47
-1.26;-0.475
-1.215;-0.515
-1.21;-0.545
-1.205;-0.555
-1.215;-0.56
-1.2;-0.57
-1.19;-0.59
-1.17;-0.605
-1.165;-0.635
-1.23;-0.62
-1.28;-0.595
-1.33;-0.585
-1.35;-0.58
-1.41;-0.57
-1.455;-0.58
-1.48;-0.565
-1.48;-0.56
-1.495;-0.56
-1.495;-0.58
-1.51;-0.57
-1.52;-0.595
-1.5;-0.585
-1.515;-0.565
-1.525;-0.565
-1.57;-0.565
-1.55;-0.595
-1.455;-0.585
-1.255;-0.615
-1;-0.625
-0.73;-0.585
-0.475;-0.5
-0.195;-0.455
0.23;-0.685
0.805;-1.19
1.27;-1.83
1.45;-2.47
1.39;-3.085
1.2;-3.51
0.865;-3.675
0.41;-3.365
-0.11;-2.745
-0.545;-2.17
-0.885;-1.76
-1.215;-1.51
-1.54;-1.33
-1.76;-1.15
-1.87;-1.005
-1.86;-0.895
-1.82;-0.795
-1.745;-0.705
-1.695;-0.625
-1.65;-0.535
-1.65;-0.475
-1.64;-0.4
-1.61;-0.35
-1.6;-0.305
-1.6;-0.28
-1.595;-0.28
-1.595;-0.27
-1.595;-0.245
-1.59;-0.22
-1.59;-0.19
-1.585;-0.155
-1.56;-0.15
-1.56;-0.17
-1.545;-0.165
-1.535;-0.12
-1.525;-0.11
-1.525;-0.095
-1.51;-0.07
-1.5;-0.06
-1.475;-0.05
-1.48;-0.025
-1.49;0
-1.49;0.01
-1.48;0.035
-1.5;0.07
-1.49;0.11
-1.49;0.115
-1.495;0.155
-1.495;0.185
-1.52;0.225
-1.53;0.26
-1.54;0.305
-1.555;0.335
-1.56;0.39
-1.54;0.415
-1.55;0.44
-1.525;0.47
-1.525;0.48
-1.505;0.49
-1.52;0.495
-1.495;0.475
-1.44;0.445
-1.395;0.38
-1.345;0.305
-1.31;0.22
-1.295;0.165
-1.245;0.09
-1.225;0.05
-1.195;-0.035
-1.205;-0.11
-1.2;-0.16
-1.215;-0.215
-1.2;-0.235
-1.185;-0.265
-1.19;-0.3
-1.175;-0.33
-1.18;-0.355
-1.175;-0.355
-1.17;-0.38
-1.17;-0.38
-1.18;-0.36
-1.19;-0.38
-1.195;-0.38
-1.195;-0.37
-1.165;-0.365
-1.195;-0.375
-1.2;-0.39
-1.235;-0.395
-1.205;-0.365
-1.185;-0.355
-1.195;-0.35
-1.2;-0.37
-1.21;-0.365
-1.21;-0.375
-1.21;-0.36
-1.215;-0.37
-1.195;-0.375
-1.2;-0.37
-1.185;-0.375
-1.195;-0.37
-1.195;-0.355
-1.175;-0.355
-1.165;-0.365
-1.15;-0.38
-1.155;-0.38
-1.165;-0.38
-1.135;-0.37
-1.125;-0.385
-1.135;-0.375
-1.12;-0.385
-1.13;-0.385
-1.1;-0.38
-1.085;-0.37
-1.045;-0.385
-1.02;-0.38
-0.99;-0.385
-0.96;-0.365
-0.935;-0.34
-0.905;-0.345
-0.865;-0.31
-0.86;-0.3
-0.83;-0.295
-0.78;-0.28
-0.73;-0.3
-0.72;-0.31
-0.7;-0.375
-0.72;-0.375
-0.73;-0.4
-0.715;-0.425
-0.695;-0.43
-0.68;-0.43
-0.695;-0.44
-0.765;-0.445
-0.8;-0.405
-0.865;-0.395
-0.885;-0.39
-0.96;-0.39
-0.98;-0.385
-1.005;-0.385
-1.015;-0.365
-1.015;-0.365
-1.015;-0.37
-1.005;-0.385
-0.995;-0.385
-0.995;-0.4
-0.995;-0.395
-1.025;-0.405
-1.06;-0.39
-1.015;-0.42
-0.905;-0.415
-0.7;-0.435
-0.43;-0.445
-0.15;-0.39
0.105;-0.33
0.455;-0.345
0.925;-0.675
1.48;-1.25
1.935;-1.89
2.08;-2.53
2.025;-3.17
1.825;-3.55
1.45;-3.56
0.9;-3.105
0.365;-2.47
-0.065;-1.945
-0.425;-1.56
-0.775;-1.26
-1.06;-1.055
-1.225;-0.885
-1.31;-0.765
-1.3;-0.685
-1.275;-0.58
-1.225;-0.495
-1.18;-0.405
-1.13;-0.3
-1.125;-0.21
-1.11;-0.195
-1.13;-0.155
-1.085;-0.09
-1.07;-0.075
-1.08;-0.055
-1.07;-0.035
-1.055;-0.015
-1.045;0
-1.03;0.03
-1.025;0.015
-1.02;0.065
-1.01;0.075
-0.99;0.065
-0.995;0.075
-0.97;0.115
-0.95;0.125
-0.95;0.145
-0.955;0.145
-0.95;0.195
-0.925;0.205
-0.92;0.22
-0.925;0.245
-0.945;0.255
-0.96;0.295
-0.95;0.335
-0.95;0.365
-0.965;0.395
-0.955;0.425
-0.95;0.465
-0.96;0.51
-0.96;0.555
-0.965;0.58
-0.95;0.64
-0.96;0.66
-0.99;0.68
-0.96;0.7
-0.945;0.71
-0.925;0.72
-0.91;0.74
-0.885;0.735
-0.84;0.68
-0.81;0.65
-0.75;0.605
-0.74;0.535
-0.67;0.46
-0.64;0.375
-0.64;0.315
-0.63;0.25
-0.605;0.18
-0.62;0.13
-0.61;0.07
-0.595;0.04
-0.6;-0.01
-0.59;-0.045
-0.59;-0.07
-0.565;-0.065
-0.565;-0.07
-0.59;-0.105
-0.6;-0.1
-0.595;-0.085
-0.565;-0.11
-0.595;-0.11
-0.59;-0.115
-0.56;-0.1
-0.565;-0.105
-0.57;-0.095
-0.59;-0.12
-0.585;-0.12
-0.61;-0.08
-0.61;-0.07
-0.605;-0.08
-0.59;-0.08
-0.585;-0.08
-0.615;-0.065
-0.61;-0.09
-0.61;-0.08
-0.605;-0.075
-0.615;-0.11
-0.605;-0.1
-0.615;-0.08
-0.59;-0.095
-0.57;-0.09
-0.585;-0.1
-0.57;-0.095
-0.55;-0.1
-0.55;-0.1
-0.575;-0.08
-0.565;-0.085
-0.555;-0.09
-0.535;-0.105
-0.525;-0.105
-0.51;-0.11
-0.465;-0.1
-0.44;-0.095
-0.41;-0.115
-0.38;-0.085
-0.36;-0.07
-0.345;-0.075
-0.3;-0.04
-0.26;-0.02
-0.23;0
-0.205;0
-0.18;-0.01
-0.12;-0.04
-0.095;-0.07
-0.085;-0.08
-0.12;-0.1
-0.125;-0.105
-0.105;-0.115
-0.085;-0.155
-0.095;-0.135
-0.13;-0.17
-0.205;-0.13
-0.26;-0.13
-0.305;-0.125
-0.36;-0.135
-0.395;-0.145
-0.385;-0.13
-0.43;-0.12
-0.43;-0.14
-0.45;-0.14
-0.44;-0.14
-0.425;-0.125
-0.43;-0.16
-0.435;-0.15
-0.465;-0.135
-0.48;-0.125
-0.47;-0.14
-0.385;-0.14
-0.19;-0.165
0.1;-0.215
0.4;-0.17
0.69;-0.07
1.005;-0.045
1.45;-0.215
1.98;-0.73
2.48;-1.37
2.76;-2.01
2.775;-2.65
2.62;-3.205
2.29;-3.39
1.8;-3.095
1.24;-2.46
0.76;-1.88
0.365;-1.485
0;-1.185
-0.38;-0.91
-0.59;-0.715
-0.695;-0.55
-0.71;-0.45
-0.69;-0.355
-0.645;-0.26
-0.585;-0.155
-0.595;-0.065
-0.585;0.02
-0.58;0.085
-0.575;0.105
-0.55;0.15
-0.545;0.165
-0.51;0.175
-0.515;0.195
-0.515;0.22
-0.505;0.235
-0.51;0.24
-0.495;0.275
-0.465;0.275
-0.46;0.285
-0.455;0.315
-0.49;0.325
-0.465;0.325
-0.425;0.335
-0.395;0.365
-0.415;0.365
-0.425;0.365
-0.425;0.41
-0.415;0.445
-0.41;0.445
-0.4;0.49
-0.39;0.515
-0.415;0.55
-0.435;0.56
-0.43;0.59
-0.425;0.645
-0.46;0.67
-0.47;0.7
-0.46;0.75
-0.495;0.78
-0.495;0.81
-0.485;0.87
-0.475;0.9
-0.48;0.905
-0.465;0.91
-0.465;0.945
-0.455;0.925
-0.44;0.915
-0.39;0.89
-0.345;0.86
-0.31;0.79
-0.265;0.7
-0.215;0.66
-0.205;0.595
-0.19;0.505
-0.15;0.43
-0.14;0.375
-0.095;0.32
-0.08;0.25
-0.07;0.21
-0.105;0.18
-0.11;0.14
-0.095;0.145
-0.085;0.105
-0.11;0.075
-0.1;0.06
-0.105;0.045
-0.11;0.045
-0.105;0.02
-0.095;0.025
-0.085;0.02
-0.09;0.015
-0.105;0.025
-0.105;0.015
-0.1;0.005
-0.115;0.005
-0.1;0.025
-0.115;0.04
-0.11;0.03
-0.12;0.035
-0.085;0.025
-0.07;0.02
-0.075;0.03
-0.085;0.03
-0.09;0.055
-0.09;0.05
-0.09;0.035
-0.105;0.025
-0.095;0.035
-0.105;0.015
-0.085;0.025
-0.08;0.01
-0.065;0.01
-0.065;0.015
-0.055;0
-0.065;0.02
-0.015;0.025
-0.03;0.025
-0.015;0
0.005;0.01
0.01;0.015
0.05;0.025
0.075;0.015
0.12;0.035
0.14;0.045
0.155;0.065
0.175;0.075
0.185;0.11
0.235;0.13
0.265;0.135
0.285;0.13
0.34;0.105
0.4;0.075
0.39;0.06
0.38;0.04
0.37;0.03
0.38;0.01
0.4;-0.005
0.425;-0.035
0.415;-0.05
0.345;-0.025
0.295;-0.015
0.22;-0.02
0.18;0
0.14;0
0.12;-0.015
0.1;0.015
0.095;0.02
0.065;0.01
0.045;0
0.06;0.005
0.075;0.025
0.085;0.01
0.06;0.015
0.035;0.03
0.05;0.005
0.055;0
0.195;-0.005
0.41;-0.015
0.685;-0.03
0.995;0.015
1.275;0.125
1.6;0.105
2.08;-0.18
2.65;-0.755
3.08;-1.395
3.2;-2.035
3.095;-2.635
2.87;-3.05
2.49;-3.1
1.965;-2.65
1.46;-2.015
1.035;-1.475
0.675;-1.11
0.345;-0.8
0.025;-0.575
-0.145;-0.415
-0.195;-0.315
-0.195;-0.23
-0.145;-0.135
-0.11;-0.05
-0.065;0.05
-0.04;0.13
-0.015;0.205
0.005;0.255
0.015;0.27
-0.005;0.315
0.015;0.33
0;0.35
0.04;0.36
0.035;0.375
0.06;0.375
0.05;0.405
0.08;0.415
0.08;0.44
0.085;0.455
0.07;0.465
0.095;0.465
0.055;0.475
0.07;0.49
0.09;0.525
0.105;0.535
0.1;0.535
0.105;0.555
0.095;0.575
0.11;0.615
0.095;0.62
0.095;0.645
0.085;0.665
0.07;0.715
0.085;0.745
0.07;0.75
0.075;0.815
0.065;0.845
0.05;0.865
0.025;0.91
0.03;0.935
0.025;0.945
0.035;0.965
0.035;0.995
0.035;1.005
0.06;1.025
0.095;1
0.125;0.97
0.17;0.92
0.205;0.855
0.24;0.845
0.29;0.76
0.305;0.675
0.335;0.62
0.34;0.565
0.365;0.49
0.365;0.43
0.375;0.385
0.39;0.365
0.38;0.3
0.385;0.315
0.39;0.275
0.375;0.24
0.395;0.21
0.38;0.22
0.36;0.2
0.355;0.18
0.35;0.185
0.35;0.18
0.345;0.17
0.355;0.17
0.355;0.17
0.34;0.16
0.33;0.175
0.335;0.19
0.34;0.16
0.325;0.16
0.33;0.18
0.31;0.18
0.295;0.17
0.305;0.16
0.3;0.165
0.29;0.18
0.275;0.17
0.3;0.17
0.31;0.17
0.325;0.165
0.315;0.16
0.295;0.14
0.285;0.19
0.305;0.165
0.31;0.165
0.315;0.15
0.315;0.15
0.33;0.15
0.345;0.15
0.335;0.135
0.335;0.135
0.34;0.135
0.38;0.125
0.4;0.13
0.445;0.115
0.485;0.14
0.5;0.16
0.53;0.18
0.53;0.195
0.56;0.22
0.6;0.265
0.615;0.25
0.66;0.22
0.7;0.205
0.73;0.16
0.7;0.15
0.71;0.125
0.71;0.115
0.685;0.08
0.705;0.045
0.71;0.035
0.7;0.035
0.66;0.05
0.585;0.065
0.535;0.055
0.475;0.07
0.41;0.055
0.385;0.09
0.365;0.08
0.34;0.055
0.345;0.06
0.33;0.05
0.325;0.03
0.345;0.04
0.36;0.035
0.335;0.035
0.31;0.02
0.295;0.025
0.355;0.01
0.505;0.015
0.76;-0.025
1.045;0.005
1.305;0.055
1.58;0.105
1.96;-0.015
2.44;-0.42
2.975;-1.06
3.265;-1.7
3.24;-2.34
3.07;-2.905
2.795;-3.185
2.37;-2.995
1.835;-2.425
1.375;-1.84
1.025;-1.39
0.68;-1.07
0.355;-0.82
0.105;-0.62
-0.01;-0.46
-0.04;-0.34
-0.015;-0.245
0.04;-0.175
0.1;-0.05
0.115;0.03
0.14;0.13
0.15;0.19
0.155;0.225
0.165;0.27
0.17;0.315
0.175;0.31
0.18;0.34
0.17;0.375
0.185;0.39
0.195;0.415
0.195;0.425
0.21;0.4
0.18;0.435
0.185;0.445
0.205;0.455
0.2;0.47
0.195;0.49
0.21;0.51
0.245;0.515
0.235;0.545
0.23;0.555
0.23;0.565
0.23;0.6
0.235;0.635
0.235;0.69
0.205;0.69
0.235;0.725
0.205;0.765
0.195;0.785
0.195;0.835
0.205;0.86
0.19;0.89
0.175;0.95
0.165;0.975
0.17;1.015
0.14;1.045
0.165;1.065
0.15;1.085
0.155;1.105
0.185;1.12
0.215;1.075
0.255;1.06
0.275;1.01
0.295;0.98
0.345;0.895
0.37;0.84
0.39;0.76
0.425;0.65
0.43;0.57
0.445;0.515
0.455;0.465
0.45;0.405
0.45;0.34
0.455;0.305
0.47;0.28
0.465;0.275
0.46;0.245
0.46;0.25
0.455;0.21
0.45;0.215
0.465;0.205
0.435;0.215
0.44;0.205
0.435;0.19
0.435;0.18
0.42;0.17
0.41;0.185
0.42;0.175
0.415;0.185
0.415;0.185
0.41;0.205
0.405;0.19
0.4;0.195
0.39;0.19
0.39;0.195
0.395;0.195
0.395;0.185
0.395;0.185
0.375;0.18
0.385;0.18
0.395;0.19
0.415;0.16
0.42;0.17
0.385;0.195
0.4;0.19
0.395;0.165
0.405;0.185
0.43;0.18
0.435;0.185
0.435;0.15
0.425;0.15
0.44;0.175
0.455;0.17
0.5;0.175
0.525;0.17
0.575;0.185
0.595;0.2
0.64;0.195
0.665;0.23
0.695;0.265
0.7;0.26
0.73;0.275
0.74;0.26
0.795;0.27
0.83;0.225
0.85;0.19
0.83;0.17
0.805;0.17
0.83;0.135
0.855;0.12
0.845;0.1
0.825;0.105
0.765;0.09
0.695;0.12
0.66;0.155
0.6;0.145
0.55;0.15
0.505;0.16
0.48;0.16
0.485;0.145
0.46;0.15
0.46;0.15
0.46;0.135
0.445;0.13
0.455;0.125
0.435;0.14
0.395;0.135
0.395;0.115
0.395;0.13
0.51;0.12
0.725;0.11
1.005;0.11
1.285;0.11
1.525;0.225
1.805;0.205
2.24;-0.095
2.77;-0.68
3.165;-1.32
3.315;-1.96
3.23;-2.6
3.055;-3.165
2.715;-3.175
2.2;-2.65
1.72;-2.015
1.28;-1.435
0.96;-1.06
0.595;-0.755
0.31;-0.53
0.1;-0.34
0.035;-0.225
0.035;-0.14
0.07;-0.07
0.11;0.02
0.155;0.11
0.18;0.215
0.18;0.275
0.21;0.32
0.225;0.355
0.235;0.395
0.26;0.425
0.26;0.43
0.235;0.45
0.24;0.47
0.26;0.465
0.26;0.49
0.275;0.5
0.265;0.495
0.26;0.525
0.24;0.53
0.26;0.545
0.26;0.56
0.27;0.575
0.275;0.59
0.265;0.6
0.27;0.63
0.305;0.625
0.28;0.655
0.27;0.7
0.275;0.705
0.28;0.75
0.265;0.765
0.255;0.8
0.25;0.825
0.24;0.875
0.205;0.895
0.215;0.955
0.22;0.97
0.2;1.01
0.175;1.04
0.16;1.065
0.17;1.075
0.18;1.105
0.17;1.14
0.195;1.135
0.215;1.12
0.23;1.11
0.275;1.05
0.325;1.015
0.365;0.965
0.39;0.89
0.375;0.77
0.435;0.72
0.47;0.65
0.47;0.575
0.47;0.475
0.48;0.42
0.49;0.4
0.48;0.335
0.5;0.295
0.5;0.275
0.485;0.26
0.47;0.23
0.475;0.225
0.475;0.215
0.47;0.215
0.46;0.195
0.43;0.195
0.425;0.185
0.425;0.19
0.425;0.19
0.405;0.165
0.39;0.18
0.37;0.19
0.385;0.2
0.36;0.195
0.365;0.175
0.37;0.17
0.35;0.19
0.345;0.155
0.345;0.17
0.35;0.17
0.32;0.185
0.335;0.17
0.315;0.15
0.305;0.16
0.31;0.16
0.315;0.155
0.31;0.13
0.315;0.145
0.31;0.135
0.32;0.13
0.295;0.135
0.305;0.13
0.3;0.135
0.3;0.115
0.3;0.12
0.295;0.135
0.325;0.145
0.36;0.125
0.34;0.1
0.39;0.105
0.435;0.105
0.46;0.125
0.465;0.16
0.49;0.165
0.515;0.185
0.54;0.19
0.55;0.2
0.59;0.205
0.635;0.195
0.64;0.155
0.635;0.14
0.63;0.115
0.61;0.09
0.65;0.095
0.635;0.045
0.635;0.02
0.6;0.05
0.535;0.035
0.475;0.055
0.42;0.075
0.35;0.065
0.295;0.04
0.27;0.065
0.245;0.08
0.215;0.055
0.2;0.08
0.185;0.06
0.185;0.06
0.19;0.055
0.195;0.06
0.16;0.07
0.135;0.07
0.11;0.075
0.15;0.065
0.265;0.035
0.515;0.015
0.82;0.03
1.09;0.06
1.37;0.15
1.73;0.035
2.2;-0.37
2.705;-1.01
3.055;-1.65
3.12;-2.29
3.04;-2.93
2.82;-3.38
2.42;-3.24
1.855;-2.605
1.33;-1.97
0.92;-1.405
0.555;-1.085
0.18;-0.815
-0.115;-0.62
-0.29;-0.46
-0.345;-0.335
-0.345;-0.24
-0.305;-0.14
-0.24;-0.065
-0.215;0.02
-0.23;0.12
-0.195;0.175
-0.18;0.235
-0.2;0.28
-0.185;0.295
-0.19;0.305
-0.205;0.33
-0.185;0.36
-0.185;0.355
-0.19;0.355
-0.155;0.38
-0.2;0.395
-0.19;0.41
-0.205;0.435
-0.205;0.45
-0.2;0.455
-0.22;0.475
-0.22;0.475
-0.2;0.495
-0.205;0.495
-0.22;0.525
-0.225;0.545
-0.24;0.545
-0.225;0.58
-0.24;0.6
-0.255;0.63
-0.26;0.66
-0.25;0.695
-0.265;0.75
-0.28;0.79
-0.285;0.84
-0.31;0.855
-0.335;0.91
-0.35;0.92
-0.365;0.965
-0.395;0.99
-0.395;1.005
-0.4;1.03
-0.385;1.035
-0.375;1.065
-0.345;1.015
-0.33;1.005
-0.295;0.965
-0.255;0.9
-0.23;0.83
-0.195;0.77
-0.155;0.685
-0.14;0.6
-0.135;0.505
-0.125;0.435
-0.15;0.38
-0.135;0.305
-0.15;0.265
-0.15;0.24
-0.155;0.175
-0.155;0.155
-0.17;0.105
-0.185;0.09
-0.2;0.065
-0.2;0.085
-0.215;0.07
-0.225;0.055
-0.235;0.045
-0.24;0.045
-0.27;0.055
-0.29;0.03
-0.275;0.05
-0.305;0.05
-0.32;0.045
-0.31;0.035
-0.33;0.035
-0.34;0.015
-0.36;0.025
-0.38;0.02
-0.36;0.015
-0.38;0.02
-0.375;0.01
-0.385;0.015
-0.395;0.005
-0.395;0.005
-0.42;0.01
-0.41;0
-0.43;-0.01
-0.45;-0.02
-0.475;-0.02
-0.455;-0.015
-0.46;-0.02
-0.46;-0.025
-0.435;-0.045
-0.43;-0.02
-0.465;-0.03
-0.465;-0.045
-0.475;-0.035
-0.435;-0.04
-0.415;-0.055
-0.395;-0.05
-0.355;-0.03
-0.355;-0.04
-0.345;-0.025
-0.32;-0.01
-0.29;0.005
-0.285;-0.005
-0.265;0.005
-0.255;0
-0.205;0
-0.175;-0.02
-0.19;-0.055
-0.2;-0.08
-0.2;-0.1
-0.2;-0.12
-0.2;-0.16
-0.195;-0.165
-0.25;-0.185
-0.345;-0.185
-0.395;-0.165
-0.43;-0.145
-0.49;-0.16
-0.555;-0.16
-0.595;-0.165
-0.62;-0.145
-0.625;-0.17
-0.63;-0.185
-0.635;-0.2
-0.65;-0.195
-0.67;-0.185
-0.67;-0.18
-0.695;-0.19
-0.73;-0.21
-0.75;-0.22
-0.675;-0.245
-0.515;-0.25
-0.26;-0.255
0.06;-0.24
0.305;-0.17
0.625;-0.09
1.045;-0.27
1.56;-0.75
2.09;-1.39
2.37;-2.03
2.36;-2.67
2.195;-3.2
1.88;-3.465
1.395;-3.23
0.82;-2.595
0.325;-1.985
-0.03;-1.55
-0.415;-1.22
-0.76;-1.005
-1.015;-0.815
-1.165;-0.655
-1.185;-0.575
-1.155;-0.48
-1.14;-0.405
-1.08;-0.33
-1.05;-0.225
-1.03;-0.15
-1.04;-0.105
-1.015;-0.095
-1.045;-0.035
-1.04;-0.025
-1.04;0
-1.07;0.02
-1.04;0.02
-1.055;0.025
-1.045;0.035
-1.035;0.03
-1.04;0.065
-1.065;0.07
-1.065;0.08
-1.055;0.08
-1.025;0.105
-1.06;0.11
-1.06;0.1
-1.05;0.13
-1.07;0.15
-1.065;0.15
-1.06;0.17
-1.08;0.175
-1.095;0.205
-1.09;0.225
-1.125;0.26
-1.12;0.29
-1.135;0.325
-1.135;0.36
-1.15;0.38
-1.165;0.4
-1.185;0.42
-1.195;0.475
-1.22;0.505
-1.215;0.52
-1.24;0.55
-1.22;0.56
-1.22;0.57
-1.24;0.585
-1.21;0.57
-1.19;0.545
-1.165;0.535
-1.145;0.46
-1.085;0.42
-1.065;0.345
-1.02;0.27
-1.025;0.195
-1.01;0.14
-0.975;0.085
-0.96;0.01
-0.97;-0.03
-0.965;-0.08
-0.97;-0.14
-0.955;-0.17
-0.965;-0.175
-0.98;-0.21
-0.975;-0.235
-0.97;-0.255
-1.005;-0.265
-1.02;-0.265
-1.025;-0.28
-1.03;-0.3
-1.01;-0.29
-1.025;-0.31
-1.025;-0.305
-1.04;-0.3
-1.04;-0.33
-1.055;-0.32
-1.07;-0.315
-1.085;-0.32
-1.095;-0.325
-1.085;-0.33
-1.11;-0.315
-1.1;-0.31
-1.1;-0.32
-1.125;-0.34
-1.125;-0.33
-1.115;-0.345
-1.115;-0.32
-1.125;-0.32
-1.145;-0.33
-1.135;-0.35
-1.1;-0.36
-1.13;-0.345
-1.12;-0.375
-1.12;-0.37
-1.145;-0.35
-1.145;-0.355
-1.145;-0.355
-1.145;-0.385
-1.13;-0.375
-1.125;-0.375
-1.13;-0.36
-1.13;-0.345
-1.105;-0.37
-1.08;-0.39
-1.055;-0.38
-1.02;-0.385
-0.99;-0.35
-0.96;-0.365
-0.94;-0.325
-0.925;-0.34
-0.89;-0.305
-0.86;-0.28
-0.86;-0.31
-0.845;-0.3
-0.8;-0.315
-0.785;-0.355
-0.8;-0.395
-0.815;-0.39
-0.81;-0.43
-0.795;-0.435
-0.78;-0.47
-0.79;-0.47
-0.82;-0.49
-0.865;-0.46
-0.93;-0.46
-0.985;-0.45
-1.05;-0.465
-1.105;-0.46
-1.125;-0.46
-1.145;-0.435
-1.12;-0.44
-1.16;-0.435
-1.155;-0.46
-1.16;-0.455
-1.155;-0.455
-1.175;-0.465
-1.185;-0.435
-1.225;-0.44
-1.2;-0.445
-1.115;-0.49
-0.94;-0.48
-0.695;-0.51
-0.415;-0.47
-0.185;-0.395
0.115;-0.375
0.535;-0.595
1.1;-1.15
1.57;-1.79
1.77;-2.43
1.715;-3.07
1.525;-3.535
1.23;-3.685
0.735;-3.325
0.205;-2.69
-0.24;-2.1
-0.62;-1.71
-0.975;-1.425
-1.28;-1.19
-1.515;-1.015
-1.565;-0.885
-1.61;-0.8
-1.56;-0.715
-1.525;-0.605
-1.48;-0.53
-1.44;-0.43
-1.425;-0.345
-1.43;-0.28
-1.425;-0.25
-1.42;-0.23
-1.415;-0.21
-1.44;-0.18
-1.4;-0.17
-1.405;-0.135
-1.385;-0.12
-1.39;-0.125
-1.38;-0.115
-1.39;-0.11
-1.37;-0.105
-1.375;-0.065
-1.365;-0.075
-1.36;-0.07
-1.345;-0.055
-1.345;-0.01
-1.33;-0.015
-1.365;0.005
-1.35;0.02
-1.365;0.035
-1.365;0.055
-1.36;0.095
-1.36;0.095
-1.37;0.15
-1.37;0.195
-1.39;0.215
-1.39;0.24
-1.425;0.275
-1.425;0.32
-1.455;0.35
-1.44;0.37
-1.465;0.425
-1.465;0.445
-1.45;0.485
-1.47;0.48
-1.47;0.515
-1.47;0.53
-1.44;0.525
-1.425;0.5
-1.385;0.48
-1.35;0.41
-1.31;0.365
-1.29;0.315
-1.26;0.235
-1.23;0.135
-1.195;0.065
-1.165;0
-1.17;-0.05
-1.165;-0.135
-1.17;-0.17
-1.155;-0.24
-1.14;-0.26
-1.14;-0.3
-1.16;-0.32
-1.15;-0.35
-1.15;-0.35
-1.165;-0.37
-1.145;-0.38
-1.14;-0.36
-1.155;-0.37
-1.17;-0.375
-1.18;-0.37
-1.175;-0.39
-1.185;-0.38
-1.21;-0.395
-1.21;-0.4
-1.23;-0.385
-1.205;-0.39
-1.205;-0.395
-1.205;-0.365
-1.22;-0.365
-1.205;-0.4
-1.225;-0.415
-1.21;-0.405
-1.215;-0.425
-1.215;-0.4
-1.205;-0.385
-1.235;-0.415
-1.225;-0.44
-1.2;-0.415
-1.23;-0.415
-1.22;-0.425
-1.225;-0.39
-1.225;-0.425
-1.23;-0.385
-1.21;-0.415
-1.21;-0.425
-1.225;-0.425
-1.235;-0.42
-1.23;-0.415
-1.205;-0.43
-1.185;-0.42
-1.17;-0.445
-1.155;-0.47
-1.12;-0.455
-1.085;-0.43
-1.06;-0.415
-1.02;-0.4
-0.985;-0.39
-0.96;-0.375
-0.95;-0.365
-0.9;-0.335
-0.87;-0.33
-0.85;-0.38
-0.84;-0.4
-0.84;-0.425
-0.865;-0.44
-0.86;-0.45
-0.84;-0.465
-0.835;-0.5
-0.825;-0.535
-0.83;-0.55
-0.9;-0.515
-0.965;-0.485
-0.995;-0.465
-1.055;-0.48
-1.105;-0.505
-1.145;-0.49
-1.17;-0.49
-1.165;-0.465
-1.17;-0.445
-1.205;-0.465
-1.18;-0.48
-1.19;-0.46
-1.18;-0.45
-1.19;-0.49
-1.22;-0.485
-1.26;-0.475
-1.23;-0.495
-1.14;-0.49
-0.94;-0.5
-0.64;-0.515
-0.38;-0.47
-0.095;-0.4
0.28;-0.425
0.79;-0.775
1.4;-1.41
1.845;-2.05
1.995;-2.69
1.93;-3.325
1.745;-3.665
1.38;-3.64
0.84;-3.1
0.295;-2.465
-0.16;-1.885
-0.555;-1.55
-0.92;-1.295
-1.235;-1.12
-1.455;-0.94
-1.545;-0.85
-1.555;-0.75
-1.535;-0.665
-1.47;-0.575
-1.435;-0.48
-1.395;-0.4
-1.395;-0.32
-1.395;-0.24
-1.37;-0.21
-1.35;-0.16
-1.375;-0.16
-1.355;-0.135
-1.35;-0.12
-1.355;-0.105
-1.335;-0.07
-1.345;-0.075
-1.345;-0.05
-1.34;-0.04
-1.31;-0.005
-1.31;-0.01
-1.32;0.025
-1.32;0.025
-1.28;0.02
-1.27;0.035
-1.28;0.075
-1.295;0.08
-1.285;0.11
-1.28;0.135
-1.28;0.16
-1.295;0.19
-1.29;0.205
-1.28;0.24
-1.275;0.29
-1.28;0.305
-1.28;0.335
-1.295;0.37
-1.305;0.415
-1.305;0.47
-1.31;0.515
-1.325;0.535
-1.345;0.56
-1.32;0.6
-1.32;0.63
-1.325;0.66
-1.305;0.675
-1.295;0.645
-1.28;0.625
-1.245;0.62
-1.195;0.585
-1.145;0.5
-1.125;0.4
-1.12;0.345
-1.045;0.265
-1.005;0.2
-1.005;0.095
-0.985;0.025
-0.99;-0.02
-0.965;-0.075
-0.96;-0.105
-0.96;-0.145
-0.955;-0.19
-0.96;-0.225
-0.945;-0.24
-0.97;-0.235
-0.96;-0.25
-0.94;-0.255
-0.945;-0.25
-0.97;-0.27
-0.96;-0.26
-0.975;-0.25
-0.96;-0.245
-0.965;-0.29
-0.98;-0.285
-0.985;-0.26
-0.99;-0.29
-0.995;-0.275
-1.02;-0.285
-1.02;-0.28
-1.045;-0.26
-1.04;-0.26
-1.02;-0.285
-1.01;-0.255
-0.995;-0.275
-1.025;-0.265
-1.025;-0.26
-1;-0.265
-1;-0.25
-0.98;-0.24
-0.98;-0.265
-0.985;-0.25
-0.975;-0.255
-0.97;-0.27
-0.96;-0.26
-0.965;-0.28
-0.96;-0.27
-0.95;-0.275
-0.96;-0.265
-0.95;-0.28
-0.93;-0.265
-0.935;-0.27
-0.9;-0.29
-0.875;-0.285
-0.83;-0.28
-0.785;-0.28
-0.74;-0.28
-0.74;-0.255
-0.705;-0.235
-0.695;-0.205
-0.66;-0.2
-0.625;-0.195
-0.6;-0.17
-0.545;-0.19
-0.515;-0.215
-0.505;-0.255
-0.51;-0.275
-0.51;-0.27
-0.49;-0.275
-0.515;-0.32
-0.51;-0.31
-0.515;-0.34
-0.565;-0.32
-0.62;-0.32
-0.68;-0.29
-0.745;-0.315
-0.79;-0.33
-0.81;-0.295
-0.84;-0.29
-0.855;-0.315
-0.89;-0.305
-0.9;-0.315
-0.89;-0.315
-0.875;-0.32
-0.87;-0.32
-0.85;-0.32
-0.91;-0.31
-0.94;-0.295
-0.97;-0.325
-0.86;-0.335
-0.64;-0.37
-0.36;-0.38
-0.065;-0.355
0.225;-0.25
0.55;-0.21
1.045;-0.415
1.59;-0.91
2.095;-1.55
2.355;-2.19
2.39;-2.83
2.265;-3.47
1.96;-3.665
1.485;-3.385
0.88;-2.75
0.355;-2.115
-0.055;-1.655
-0.44;-1.315
-0.78;-1.075
-1.06;-0.88
-1.17;-0.745
-1.235;-0.625
-1.205;-0.555
-1.15;-0.45
-1.13;-0.375
-1.065;-0.27
-1.065;-0.205
-1.045;-0.13
-1.035;-0.09
-1.025;-0.03
-1.035;-0.01
-1.025;0
-1.03;0.005
-1.025;0.035
-1.035;0.03
-1.02;0.045
-1.025;0.065
-1.015;0.075
-1;0.085
-1.005;0.115
-0.975;0.125
-0.97;0.16
-0.96;0.135
-0.97;0.185
-0.96;0.195
-0.965;0.205
-0.94;0.245
-0.95;0.255
-0.965;0.295
-0.985;0.31
-0.98;0.33
-0.98;0.36
-1.005;0.4
-1;0.41
-1.01;0.47
-1.03;0.495
-1.04;0.525
-1.035;0.58
-1.03;0.58
-1.035;0.63
-1.02;0.675
-1.02;0.7
-1.035;0.715
-1.05;0.74
-1.04;0.76
-1.015;0.745
-0.975;0.735
-0.935;0.695
-0.895;0.655
-0.88;0.6
-0.855;0.525
-0.785;0.44
-0.735;0.355
-0.725;0.285
-0.695;0.225
-0.69;0.17
-0.67;0.105
-0.675;0.035
-0.69;-0.005
-0.675;-0.06
-0.665;-0.11
-0.675;-0.125
-0.685;-0.165
-0.68;-0.165
-0.68;-0.17
-0.65;-0.185
-0.67;-0.195
-0.67;-0.225
-0.675;-0.22
-0.685;-0.205
-0.685;-0.18
-0.715;-0.2
-0.71;-0.2
-0.71;-0.195
-0.705;-0.195
-0.69;-0.2
-0.69;-0.205
-0.68;-0.205
-0.715;-0.19
-0.72;-0.175
-0.73;-0.195
-0.715;-0.19
-0.72;-0.18
-0.715;-0.19
-0.7;-0.195
-0.705;-0.185
-0.69;-0.205
-0.675;-0.205
-0.68;-0.225
-0.7;-0.205
-0.7;-0.205
-0.695;-0.205
-0.69;-0.2
-0.68;-0.2
-0.67;-0.225
-0.665;-0.215
-0.635;-0.235
-0.645;-0.235
-0.645;-0.25
-0.635;-0.25
-0.625;-0.24
-0.6;-0.255
-0.545;-0.235
-0.48;-0.23
-0.48;-0.225
-0.475;-0.195
-0.45;-0.185
-0.415;-0.16
-0.395;-0.1
-0.38;-0.12
-0.365;-0.145
-0.31;-0.16
-0.275;-0.175
-0.26;-0.205
-0.29;-0.21
-0.28;-0.215
-0.275;-0.255
-0.29;-0.255
-0.27;-0.285
-0.3;-0.285
-0.385;-0.29
-0.445;-0.265
-0.495;-0.255
-0.54;-0.255
-0.575;-0.245
-0.585;-0.245
-0.605;-0.235
-0.6;-0.24
-0.62;-0.27
-0.635;-0.26
-0.63;-0.25
-0.61;-0.27
-0.63;-0.255
-0.665;-0.255
-0.675;-0.265
-0.675;-0.255
-0.63;-0.275
-0.48;-0.29
-0.205;-0.32
0.06;-0.3
0.355;-0.205
0.645;-0.145
1.065;-0.23
1.62;-0.64
2.185;-1.28
2.52;-1.92
2.545;-2.56
2.405;-3.155
2.12;-3.485
1.675;-3.365
1.13;-2.775
0.64;-2.155
0.24;-1.655
-0.11;-1.33
-0.46;-1.045
-0.755;-0.84
-0.93;-0.7
-0.97;-0.58
-0.965;-0.475
-0.93;-0.41
-0.87;-0.325
-0.83;-0.235
-0.81;-0.16
-0.81;-0.07
-0.815;-0.05
-0.8;-0.015
-0.745;0.015
-0.765;0.015
-0.755;0.055
-0.755;0.08
-0.745;0.085
-0.735;0.115
-0.71;0.13
-0.725;0.13
-0.71;0.15
-0.735;0.16
-0.725;0.18
-0.7;0.185
-0.71;0.22
-0.685;0.215
-0.675;0.24
-0.68;0.265
-0.67;0.265
-0.68;0.285
-0.66;0.305
-0.665;0.325
-0.67;0.35
-0.655;0.385
-0.655;0.41
-0.68;0.45
-0.685;0.485
-0.72;0.515
-0.735;0.56
-0.74;0.585
-0.75;0.61
-0.74;0.635
-0.755;0.685
-0.735;0.685
-0.755;0.715
-0.735;0.735
-0.725;0.755
-0.7;0.74
-0.67;0.725
-0.62;0.72
-0.59;0.655
-0.55;0.625
-0.505;0.535
-0.505;0.47
-0.465;0.43
-0.445;0.35
-0.415;0.27
-0.38;0.205
-0.37;0.15
-0.38;0.12
-0.375;0.055
-0.36;0.02
-0.355;0
-0.38;-0.025
-0.37;-0.04
-0.38;-0.055
-0.39;-0.065
-0.38;-0.06
-0.38;-0.09
-0.385;-0.09
-0.395;-0.1
-0.38;-0.09
-0.375;-0.095
-0.385;-0.1
-0.395;-0.095
-0.425;-0.095
-0.42;-0.085
-0.41;-0.075
-0.425;-0.075
-0.435;-0.09
-0.43;-0.095
-0.445;-0.095
-0.425;-0.11
-0.43;-0.105
-0.415;-0.075
-0.435;-0.09
-0.44;-0.09
-0.415;-0.09
-0.415;-0.095
-0.425;-0.09
-0.43;-0.1
-0.42;-0.1
-0.38;-0.105
-0.405;-0.105
-0.39;-0.115
-0.42;-0.12
-0.4;-0.12
-0.395;-0.13
-0.395;-0.11
-0.375;-0.12
-0.39;-0.135
-0.365;-0.12
-0.34;-0.135
-0.305;-0.155
-0.275;-0.155
-0.2;-0.16
-0.165;-0.11
-0.16;-0.105
-0.145;-0.105
-0.115;-0.085
-0.08;-0.05
-0.075;-0.05
-0.04;-0.07
-0.03;-0.055
-0.01;-0.105
0;-0.12
0.02;-0.125
0.015;-0.145
0.015;-0.18
0.02;-0.2
0.03;-0.235
0.015;-0.22
-0.025;-0.24
-0.105;-0.215
-0.15;-0.175
-0.225;-0.15
-0.255;-0.2
-0.295;-0.195
-0.295;-0.175
-0.32;-0.19
-0.325;-0.195
-0.34;-0.185
-0.335;-0.21
-0.33;-0.2
-0.325;-0.195
-0.345;-0.22
-0.39;-0.21
-0.4;-0.205
-0.335;-0.225
-0.205;-0.235
0.035;-0.26
0.315;-0.26
0.59;-0.19
0.875;-0.13
1.245;-0.23
1.715;-0.64
2.245;-1.28
2.6;-1.92
2.635;-2.56
2.5;-3.11
2.265;-3.46
1.85;-3.36
1.29;-2.73
0.8;-2.095
0.43;-1.615
0.07;-1.27
-0.24;-1.03
-0.52;-0.815
-0.67;-0.68
-0.71;-0.555
-0.71;-0.46
-0.65;-0.415
-0.605;-0.305
-0.56;-0.2
-0.545;-0.135
-0.535;-0.08
-0.52;-0.005
-0.515;0.015
-0.5;0.04
-0.495;0.065
-0.505;0.095
-0.495;0.115
-0.5;0.13
-0.48;0.125
-0.49;0.155
-0.5;0.155
-0.46;0.175
-0.445;0.2
-0.47;0.195
-0.46;0.205
-0.465;0.235
-0.46;0.25
-0.445;0.25
-0.455;0.27
-0.455;0.29
-0.46;0.295
-0.445;0.335
-0.44;0.36
-0.455;0.375
-0.445;0.41
-0.45;0.44
-0.45;0.47
-0.455;0.495
-0.475;0.55
-0.485;0.595
-0.5;0.635
-0.49;0.665
-0.485;0.69
-0.505;0.72
-0.515;0.755
-0.525;0.765
-0.515;0.78
-0.52;0.82
-0.515;0.805
-0.485;0.8
-0.45;0.76
-0.4;0.74
-0.36;0.66
-0.32;0.61
-0.295;0.54
-0.26;0.45
-0.255;0.37
-0.205;0.31
-0.2;0.245
-0.205;0.185
-0.2;0.135
-0.185;0.1
-0.19;0.075
-0.21;0.03
-0.195;-0.005
-0.195;-0.03
-0.18;-0.035
-0.18;-0.055
-0.19;-0.06
-0.215;-0.07
-0.23;-0.095
-0.23;-0.1
-0.22;-0.105
-0.235;-0.085
-0.235;-0.1
-0.23;-0.085
-0.235;-0.08
-0.255;-0.08
-0.235;-0.075
-0.235;-0.055
-0.255;-0.075
-0.265;-0.08
-0.26;-0.085
-0.25;-0.075
-0.26;-0.09
-0.255;-0.1
-0.26;-0.08
-0.255;-0.095
-0.265;-0.125
-0.245;-0.11
-0.25;-0.1
-0.25;-0.09
-0.235;-0.105
-0.23;-0.105
-0.24;-0.115
-0.22;-0.125
-0.205;-0.12
-0.22;-0.125
-0.22;-0.13
-0.235;-0.13
-0.215;-0.135
-0.2;-0.12
-0.175;-0.125
-0.19;-0.13
-0.15;-0.14
-0.125;-0.145
-0.075;-0.135
-0.05;-0.12
-0.04;-0.115
0;-0.1
0.035;-0.06
0.08;-0.025
0.095;-0.025
0.125;-0.02
0.155;-0.005
0.185;-0.02
0.21;-0.095
0.21;-0.105
0.185;-0.14
0.18;-0.115
0.185;-0.16
0.215;-0.17
0.235;-0.165
0.22;-0.19
0.12;-0.195
0.07;-0.15
0.025;-0.155
-0.025;-0.145
-0.065;-0.14
-0.115;-0.115
-0.14;-0.11
-0.15;-0.12
-0.145;-0.125
-0.155;-0.15
-0.15;-0.15
-0.15;-0.155
-0.175;-0.14
-0.21;-0.12
-0.24;-0.135
-0.225;-0.11
-0.14;-0.135
0.03;-0.155
0.29;-0.175
0.565;-0.15
0.845;-0.065
1.17;-0.045
1.59;-0.29
2.12;-0.835
2.61;-1.475
2.905;-2.115
2.905;-2.755
2.775;-3.34
2.5;-3.5
2.01;-3.095
1.46;-2.46
0.99;-1.825
0.585;-1.38
0.23;-1.09
-0.1;-0.84
-0.37;-0.67
-0.49;-0.53
-0.51;-0.42
-0.49;-0.335
-0.43;-0.255
-0.41;-0.175
-0.375;-0.08
-0.355;0.015
-0.355;0.065
-0.355;0.115
-0.345;0.15
-0.325;0.145
-0.35;0.175
-0.32;0.195
-0.315;0.2
-0.315;0.21
-0.305;0.255
-0.33;0.26
-0.315;0.27
-0.305;0.3
-0.285;0.305
-0.28;0.32
-0.285;0.315
-0.275;0.35
-0.275;0.365
-0.275;0.375
-0.285;0.38
-0.295;0.41
-0.3;0.43
-0.27;0.47
-0.275;0.51
-0.285;0.53
-0.29;0.565
-0.305;0.585
-0.31;0.625
-0.31;0.65
-0.32;0.695
-0.345;0.735
-0.365;0.765
-0.35;0.81
-0.385;0.845
-0.4;0.88
-0.385;0.91
-0.38;0.94
-0.35;0.955
-0.36;0.98
-0.335;0.965
-0.305;0.95
-0.275;0.89
-0.225;0.87
-0.19;0.79
-0.15;0.715
-0.095;0.635
-0.06;0.56
-0.045;0.48
-0.035;0.445
0;0.355
-0.005;0.275
-0.01;0.21
0.01;0.195
0.005;0.145
-0.01;0.1
-0.02;0.1
-0.02;0.095
-0.015;0.06
-0.04;0.055
-0.025;0.045
-0.03;0.04
-0.045;0.03
-0.045;0.045
-0.045;0.05
-0.05;0.05
-0.07;0.01
-0.08;0.035
-0.065;0.035
-0.065;0.01
-0.09;0.01
-0.09;0.045
-0.115;0.02
-0.11;0.015
-0.12;-0.02
-0.135;-0.005
-0.12;0.01
-0.12;0
-0.115;0
-0.115;0.005
-0.13;0
-0.13;0.01
-0.125;-0.005
-0.12;-0.01
-0.115;-0.02
-0.095;-0.005
-0.105;0
-0.11;-0.025
-0.105;0
-0.105;-0.015
-0.1;-0.02
-0.095;-0.035
-0.1;-0.025
-0.095;-0.03
-0.1;-0.05
-0.105;-0.045
-0.065;-0.04
-0.04;-0.025
-0.015;-0.03
0.02;-0.065
0.055;-0.035
0.075;-0.035
0.105;0.01
0.135;0.025
0.165;0.05
0.195;0.075
0.225;0.055
0.28;0.03
0.325;0.005
0.35;-0.005
0.345;-0.005
0.33;-0.01
0.31;-0.025
0.33;-0.04
0.33;-0.075
0.33;-0.085
0.31;-0.08
0.235;-0.105
0.155;-0.075
0.115;-0.065
0.06;-0.065
0.01;-0.075
-0.03;-0.055
-0.055;-0.05
-0.06;-0.04
-0.085;-0.03
-0.08;-0.065
-0.075;-0.065
-0.055;-0.05
-0.085;-0.085
-0.065;-0.075
-0.1;-0.06
-0.125;-0.06
-0.055;-0.07
0.14;-0.095
0.43;-0.115
0.765;-0.095
1.07;-0.015
1.405;0.035
1.86;-0.21
2.41;-0.775
2.89;-1.415
3.11;-2.055
3.095;-2.695
2.94;-3.335
2.61;-3.455
2.12;-2.985
1.55;-2.35
1.075;-1.715
0.66;-1.28
0.28;-0.99
-0.065;-0.725
-0.33;-0.57
-0.42;-0.44
-0.455;-0.35
-0.43;-0.25
-0.39;-0.17
-0.35;-0.07
-0.3;0.015
-0.285;0.085
-0.295;0.125
-0.28;0.17
-0.3;0.215
-0.275;0.225
-0.265;0.255
-0.265;0.27
-0.27;0.295
-0.265;0.305
-0.235;0.315
-0.255;0.315
-0.25;0.315
-0.25;0.34
-0.265;0.37
-0.24;0.37
-0.245;0.4
-0.21;0.39
-0.235;0.395
-0.23;0.435
-0.255;0.455
-0.24;0.475
-0.235;0.505
-0.21;0.545
-0.235;0.555
-0.255;0.58
-0.245;0.595
-0.255;0.645
-0.24;0.69
-0.275;0.705
-0.29;0.735
-0.31;0.815
-0.315;0.82
-0.31;0.86
-0.325;0.905
-0.33;0.94
-0.34;0.945
-0.34;0.97
-0.32;0.985
-0.305;0.99
-0.265;1
-0.21;0.955
-0.18;0.925
-0.16;0.865
-0.095;0.825
-0.1;0.73
-0.04;0.655
-0.015;0.58
0.01;0.49
0.03;0.455
0.065;0.395
0.055;0.34
0.055;0.28
0.045;0.23
0.035;0.195
0.035;0.185
0.035;0.165
0.03;0.15
0.04;0.13
0.035;0.125
0.04;0.115
0.04;0.1
0.03;0.08
0.02;0.085
0.04;0.08
0.05;0.075
0.025;0.08
0.025;0.095
0.025;0.085
-0.005;0.085
0.005;0.085
-0.01;0.08
-0.015;0.065
-0.005;0.06
-0.005;0.075
-0.015;0.05
-0.025;0.06
-0.015;0.045
-0.01;0.045
-0.015;0.04
-0.01;0.04
0.005;0.035
0.02;0.015
0.015;0.02
0.005;0.02
-0.005;0.01
0.015;0.005
0.005;0.015
-0.015;-0.005
0;-0.005
0.01;-0.01
-0.005;-0.005
0.015;-0.01
0.025;-0.005
0.02;0
0.04;-0.03
0.075;-0.02
0.115;-0.005
0.165;-0.01
0.18;-0.01
0.225;0.01
0.235;0
0.26;0.035
0.295;0.04
0.325;0.06
0.34;0.08
0.39;0.06
0.43;0.045
0.44;-0.005
0.435;-0.025
0.435;-0.035
0.405;-0.025
0.43;-0.06
0.43;-0.06
0.425;-0.085
0.395;-0.095
0.335;-0.095
0.28;-0.065
0.23;-0.075
0.17;-0.07
0.13;-0.07
0.115;-0.05
0.09;-0.05
0.08;-0.02
0.06;-0.06
0.065;-0.065
0.075;-0.065
0.095;-0.065
0.095;-0.1
0.055;-0.075
0;-0.08
0.02;-0.06
0.08;-0.095
0.255;-0.125
0.505;-0.12
0.795;-0.085
1.085;-0.015
1.375;0.025
1.785;-0.145
2.305;-0.615
2.81;-1.255
3.125;-1.895
3.14;-2.535
2.98;-3.15
2.73;-3.425
2.31;-3.17
1.745;-2.535
1.265;-1.91
0.87;-1.47
0.52;-1.13
0.165;-0.875
-0.11;-0.68
-0.275;-0.555
-0.33;-0.455
-0.3;-0.35
-0.255;-0.28
-0.22;-0.2
-0.21;-0.11
-0.16;-0.02
-0.16;0.055
-0.155;0.11
-0.155;0.14
-0.155;0.17
-0.165;0.205
-0.155;0.21
-0.14;0.215
-0.135;0.22
-0.125;0.235
-0.105;0.25
-0.13;0.265
-0.125;0.29
-0.135;0.31
-0.115;0.305
-0.11;0.32
-0.12;0.335
-0.105;0.345
-0.09;0.375
-0.1;0.36
-0.115;0.385
-0.1;0.41
-0.11;0.425
-0.135;0.45
-0.135;0.475
-0.125;0.515
-0.135;0.53
-0.15;0.555
-0.145;0.615
-0.16;0.645
-0.175;0.67
-0.165;0.695
-0.205;0.725
-0.21;0.78
-0.235;0.8
-0.24;0.81
-0.215;0.825
-0.22;0.865
-0.225;0.86
-0.205;0.865
-0.185;0.87
-0.155;0.84
-0.125;0.8
-0.07;0.735
-0.025;0.685
0.01;0.605
0.035;0.55
0.06;0.475
0.06;0.415
0.105;0.35
0.09;0.295
0.08;0.24
0.09;0.17
0.11;0.14
0.08;0.105
0.085;0.095
0.08;0.085
0.1;0.075
0.08;0.025
0.085;0.015
0.095;0.02
0.085;0.025
0.08;0.015
0.07;0
0.06;0.005
0.04;0.035
0.045;0.015
0.035;0.005
0.03;0.02
0.04;0.035
0.01;0.025
0.015;0.025
0.025;0
-0.01;0
-0.005;0.005
-0.01;0.025
-0.005;0.025
-0.025;0.015
-0.025;0.015
-0.015;0
-0.04;0
-0.01;0.01
-0.02;0.01
-0.025;0
-0.04;0
-0.015;0
-0.01;0
-0.005;0
0.01;-0.02
0.015;-0.03
0;-0.025
0;-0.01
0.03;-0.005
0.035;-0.02
0.03;-0.02
0.03;-0.015
0.07;-0.02
0.115;-0.045
0.145;-0.04
0.175;-0.035
0.2;-0.005
0.215;0.02
0.265;0.03
0.3;0.05
0.3;0.06
0.32;0.085
0.34;0.07
0.395;0.06
0.42;0.025
0.41;-0.005
0.395;-0.01
0.395;-0.025
0.4;-0.065
0.415;-0.08
0.415;-0.08
0.37;-0.095
0.31;-0.095
0.245;-0.085
0.195;-0.045
0.13;-0.055
0.08;-0.065
0.055;-0.055
0.045;-0.04
0.005;-0.04
0.005;-0.045
0.015;-0.055
0.01;-0.08
0.015;-0.08
0.005;-0.055
-0.03;-0.055
-0.03;-0.07
-0.03;-0.055
0.04;-0.09
0.205;-0.11
0.45;-0.12
0.71;-0.11
0.96;-0.03
1.24;0.01
1.605;-0.13
2.09;-0.6
2.585;-1.24
2.87;-1.88
2.895;-2.52
2.785;-3.16
2.515;-3.515
2.09;-3.215
1.545;-2.58
1.085;-1.945
0.71;-1.4
0.36;-1.085
0.02;-0.85
-0.245;-0.64
-0.35;-0.49
-0.36;-0.39
-0.34;-0.31
-0.3;-0.255
-0.265;-0.145
-0.245;-0.07
-0.21;0.04
-0.2;0.075
-0.185;0.135
-0.185;0.185
-0.195;0.22
-0.195;0.22
-0.185;0.255
-0.18;0.265
-0.165;0.265
-0.17;0.28
-0.185;0.285
-0.185;0.305
-0.18;0.325
-0.185;0.315
-0.195;0.33
-0.185;0.345
-0.185;0.35
-0.155;0.345
-0.17;0.39
-0.145;0.405
-0.145;0.425
-0.165;0.455
-0.17;0.45
-0.185;0.495
-0.185;0.53
-0.21;0.545
-0.205;0.57
-0.21;0.61
-0.225;0.65
-0.225;0.675
-0.245;0.7
-0.25;0.75
-0.25;0.8
-0.27;0.845
-0.27;0.885
-0.285;0.89
-0.285;0.91
-0.26;0.93
-0.27;0.935
-0.28;0.945
-0.25;0.95
-0.235;0.935
-0.19;0.875
-0.16;0.83
-0.115;0.785
-0.09;0.69
-0.035;0.615
-0.025;0.54
-0.005;0.45
0.035;0.4
0.04;0.335
0.055;0.275
0.055;0.21
0.055;0.16
0.065;0.135
0.06;0.08
0.045;0.07
0.055;0.055
0.055;0.03
0.05;0.03
0.045;0.01
0.04;-0.015
0.025;-0.015
0.025;0.01
0.015;0.005
0;-0.01
-0.01;0
-0.01;0.01
-0.02;-0.025
-0.025;-0.025
-0.02;-0.025
-0.035;-0.02
-0.01;-0.025
-0.02;-0.025
-0.045;-0.02
-0.05;0.015
-0.07;-0.01
-0.055;-0.01
-0.06;-0.015
-0.06;-0.02
-0.08;-0.025
-0.065;-0.015
-0.065;-0.035
-0.055;-0.025
-0.055;-0.04
-0.07;-0.03
-0.05;-0.05
-0.055;-0.04
-0.055;-0.05
-0.055;-0.07
-0.045;-0.04
-0.06;-0.065
-0.03;-0.06
-0.04;-0.075
-0.025;-0.08
-0.01;-0.075
-0.005;-0.08
0.02;-0.08
0.045;-0.075
0.075;-0.06
0.11;-0.04
0.135;-0.035
0.155;-0.01
0.175;0
0.21;0
0.225;0.04
0.26;0.01
0.295;0.035
0.345;-0.005
0.325;-0.05
0.315;-0.065
0.285;-0.065
0.28;-0.11
0.305;-0.125
0.335;-0.12
0.29;-0.145
0.235;-0.14
0.17;-0.12
0.12;-0.12
0.055;-0.115
0.01;-0.095
-0.05;-0.105
-0.06;-0.07
-0.065;-0.06
-0.115;-0.09
-0.095;-0.1
-0.115;-0.11
-0.11;-0.11
-0.105;-0.1
-0.13;-0.12
-0.155;-0.1
-0.18;-0.1
-0.16;-0.125
-0.04;-0.135
0.165;-0.155
0.445;-0.15
0.75;-0.12
1.03;-0.05
1.405;-0.105
1.885;-0.495
2.42;-1.135
2.845;-1.775
2.99;-2.415
2.89;-3.055
2.71;-3.54
2.305;-3.43
1.765;-2.8
1.245;-2.165
0.79;-1.54
0.39;-1.195
0.005;-0.915
-0.305;-0.73
-0.47;-0.6
-0.535;-0.5
-0.55;-0.39
-0.52;-0.315
-0.495;-0.225
-0.47;-0.12
-0.43;-0.03
-0.405;0.04
-0.41;0.105
-0.41;0.135
-0.39;0.16
-0.4;0.18
-0.41;0.175
-0.395;0.21
-0.41;0.225
-0.42;0.23
-0.41;0.27
-0.4;0.275
-0.38;0.28
-0.39;0.295
-0.4;0.3
-0.4;0.34
-0.37;0.355
-0.38;0.4
-0.37;0.39
-0.38;0.4
-0.385;0.42
-0.385;0.46
-0.375;0.485
-0.39;0.495
-0.39;0.515
-0.41;0.54
-0.41;0.58
-0.4;0.625
-0.41;0.68
-0.425;0.69
-0.45;0.745
-0.445;0.78
-0.465;0.835
-0.455;0.865
-0.465;0.88
-0.47;0.925
-0.455;0.935
-0.47;0.96
-0.485;1
-0.465;0.995
-0.44;0.985
-0.43;0.965
-0.395;0.94
-0.355;0.875
-0.295;0.83
-0.27;0.71
-0.25;0.65
-0.195;0.57
-0.195;0.5
-0.18;0.43
-0.16;0.355
-0.145;0.28
-0.135;0.21
-0.135;0.195
-0.155;0.14
-0.16;0.11
-0.16;0.095
-0.165;0.05
-0.15;0.045
-0.165;0.04
-0.175;0.015
-0.16;0.015
-0.17;0.025
-0.195;0.02
-0.17;0.005
-0.18;0.01
-0.2;0.035
-0.22;0.015
-0.21;0.02
-0.215;0.02
-0.23;0.015
-0.245;0.03
-0.23;0.045
-0.245;0.025
-0.235;0.02
-0.27;0.01
-0.275;0.025
-0.26;0.02
-0.255;0.025
-0.245;0.005
-0.28;0.03
-0.26;0.02
-0.26;-0.005
-0.275;0
-0.27;0.01
-0.265;0.005
-0.235;0.02
-0.24;0
-0.235;0.005
-0.225;-0.015
-0.225;0
-0.23;-0.015
-0.22;-0.025
-0.21;-0.015
-0.205;-0.02
-0.195;-0.03
-0.145;-0.015
-0.13;-0.02
-0.085;-0.01
-0.065;-0.02
-0.04;0.005
-0.01;0.025
0.03;0.055
0.03;0.085
0.065;0.07
0.095;0.065
0.175;0.05
0.225;0.035
0.22;0.005
0.21;-0.005
0.2;-0.005
0.185;-0.035
0.195;-0.055
0.19;-0.08
0.17;-0.09
0.105;-0.105
0.04;-0.09
-0.02;-0.06
-0.075;-0.05
-0.115;-0.06
-0.16;-0.07
-0.185;-0.07
-0.19;-0.065
-0.22;-0.075
-0.22;-0.07
-0.23;-0.08
-0.23;-0.105
-0.21;-0.085
-0.245;-0.085
-0.28;-0.09
-0.31;-0.075
-0.27;-0.1
-0.155;-0.1
0.065;-0.135
0.365;-0.14
0.7;-0.1
1.015;-0.025
1.375;-0.035
1.83;-0.345
2.38;-0.965
2.835;-1.605
2.985;-2.245
2.93;-2.885
2.725;-3.495
2.35;-3.495
1.795;-2.965
1.245;-2.33
0.8;-1.705
0.405;-1.29
0.01;-0.99
-0.335;-0.78
-0.54;-0.61
-0.62;-0.5
-0.6;-0.41
-0.585;-0.3
-0.555;-0.225
-0.515;-0.135
-0.475;-0.045
-0.47;0.05
-0.485;0.11
-0.47;0.135
-0.46;0.155
-0.445;0.17
-0.44;0.185
-0.425;0.19
-0.435;0.225
-0.45;0.235
-0.42;0.25
-0.425;0.265
-0.405;0.275
-0.4;0.3
-0.43;0.31
-0.43;0.32
-0.415;0.325
-0.4;0.345
-0.4;0.36
-0.4;0.37
-0.375;0.395
-0.4;0.41
-0.4;0.435
-0.405;0.475
-0.425;0.495
-0.43;0.53
-0.44;0.545
-0.455;0.605
-0.44;0.625
-0.465;0.63
-0.465;0.655
-0.485;0.725
-0.49;0.765
-0.485;0.775
-0.51;0.81
-0.535;0.835
-0.54;0.86
-0.545;0.89
-0.52;0.895
-0.515;0.88
-0.485;0.89
-0.475;0.87
-0.43;0.825
-0.395;0.78
-0.34;0.73
-0.29;0.625
-0.28;0.56
-0.26;0.5
-0.225;0.44
-0.235;0.385
-0.19;0.29
-0.19;0.245
-0.18;0.175
-0.16;0.14
-0.175;0.12
-0.21;0.08
-0.19;0.03
-0.16;0.01
-0.19;0
-0.18;-0.015
-0.19;-0.02
-0.165;-0.03
-0.19;-0.03
-0.21;-0.01
-0.21;-0.045
-0.225;-0.04
-0.225;-0.03
-0.23;-0.04
-0.215;-0.02
-0.245;-0.04
-0.255;-0.035
-0.26;-0.06
-0.28;-0.035
-0.265;-0.04
-0.265;-0.045
-0.265;-0.045
-0.255;-0.05
-0.27;-0.02
-0.25;-0.025
-0.27;-0.025
-0.27;-0.035
-0.26;-0.045
-0.245;-0.03
-0.23;-0.025
-0.245;-0.055
-0.23;-0.045
-0.23;-0.05
-0.24;-0.035
-0.23;-0.055
-0.225;-0.065
-0.205;-0.05
-0.22;-0.065
-0.21;-0.065
-0.215;-0.065
-0.195;-0.07
-0.18;-0.07
-0.16;-0.08
-0.12;-0.095
-0.09;-0.08
-0.075;-0.06
-0.035;-0.045
-0.015;-0.02
0.01;0.005
0.03;0
0.055;0.015
0.075;0.02
0.11;0.005
0.15;0.005
0.17;-0.015
0.18;-0.05
0.195;-0.06
0.18;-0.07
0.19;-0.08
0.18;-0.11
0.205;-0.13
0.165;-0.135
0.105;-0.12
0.03;-0.13
-0.02;-0.115
-0.07;-0.125
-0.11;-0.12
-0.145;-0.085
-0.155;-0.08
-0.18;-0.09
-0.2;-0.11
-0.21;-0.12
-0.205;-0.115
-0.185;-0.1
-0.2;-0.125
-0.225;-0.11
-0.235;-0.115
-0.255;-0.135
-0.155;-0.15
0.035;-0.16
0.315;-0.2
0.625;-0.15
0.905;-0.065
1.21;-0.035
1.6;-0.21
2.11;-0.72
2.64;-1.36
2.875;-2
2.85;-2.64
2.67;-3.255
2.37;-3.43
1.905;-3.115
1.33;-2.48
0.875;-1.845
0.5;-1.395
0.15;-1.11
-0.175;-0.865
-0.43;-0.665
-0.54;-0.545
-0.575;-0.425
-0.56;-0.34
-0.49;-0.27
-0.435;-0.17
-0.4;-0.09
-0.375;0
-0.395;0.075
-0.385;0.12
-0.375;0.13
-0.36;0.17
-0.365;0.19
-0.34;0.18
-0.35;0.215
-0.335;0.23
-0.325;0.23
-0.315;0.275
-0.33;0.29
-0.32;0.295
-0.335;0.285
-0.31;0.31
-0.3;0.335
-0.29;0.345
-0.31;0.345
-0.32;0.37
-0.285;0.4
-0.28;0.405
-0.295;0.425
-0.3;0.44
-0.325;0.465
-0.295;0.49
-0.315;0.51
-0.33;0.555
-0.33;0.59
-0.35;0.62
-0.4;0.675
-0.4;0.69
-0.38;0.71
-0.38;0.77
-0.41;0.79
-0.43;0.81
-0.43;0.83
-0.43;0.845
-0.425;0.845
-0.42;0.865
-0.4;0.88
-0.375;0.855
-0.32;0.82
-0.27;0.785
-0.22;0.74
-0.195;0.67
-0.155;0.585
-0.13;0.54
-0.13;0.47
-0.105;0.375
-0.065;0.325
-0.045;0.26
-0.06;0.205
-0.05;0.175
-0.075;0.12
-0.07;0.085
-0.06;0.085
-0.075;0.06
-0.08;0.03
-0.08;0.045
-0.09;0.045
-0.07;0.03
-0.08;0.025
-0.095;0.01
-0.095;0.015
-0.11;0.015
-0.11;0.025
-0.12;0
-0.13;0.015
-0.135;0.015
-0.14;0.02
-0.145;0.01
-0.155;0.01
-0.155;0
-0.16;0.005
-0.165;0.01
-0.17;-0.005
-0.175;0
-0.17;-0.01
-0.16;0
-0.175;-0.01
-0.17;-0.005
-0.165;0
-0.16;-0.015
-0.16;-0.025
-0.15;-0.015
-0.16;0
-0.155;-0.035
-0.145;-0.02
-0.14;-0.05
-0.12;-0.04
-0.135;-0.04
-0.14;-0.03
-0.14;-0.05
-0.14;-0.05
-0.12;-0.07
-0.095;-0.055
-0.07;-0.055
-0.04;-0.035
0;-0.045
0.02;-0.04
0.045;-0.035
0.06;-0.005
0.08;0.025
0.105;0.03
0.135;0.05
0.16;0.025
0.185;0.02
0.215;0.02
0.22;-0.01
0.225;-0.015
0.21;-0.05
0.21;-0.075
0.235;-0.1
0.255;-0.14
0.22;-0.12
0.175;-0.12
0.115;-0.12
0.055;-0.09
0.01;-0.075
-0.055;-0.11
-0.075;-0.105
-0.115;-0.08
-0.145;-0.095
-0.155;-0.08
-0.17;-0.105
-0.18;-0.1
-0.165;-0.1
-0.175;-0.1
-0.17;-0.11
-0.2;-0.12
-0.22;-0.12
-0.2;-0.1
-0.105;-0.11
0.115;-0.135
0.38;-0.145
0.65;-0.125
0.9;-0.065
1.175;-0.075
1.605;-0.325
2.145;-0.915
2.575;-1.555
2.75;-2.195
2.68;-2.835
2.505;-3.445
2.205;-3.56
1.725;-3.095
1.22;-2.46
0.8;-1.825
0.44;-1.395
0.09;-1.08
-0.235;-0.845
-0.445;-0.675
-0.555;-0.535
-0.565;-0.44
-0.545;-0.365
-0.495;-0.27
-0.445;-0.18
-0.41;-0.085
-0.395;-0.005
-0.38;0.065
-0.375;0.095
-0.365;0.12
-0.36;0.175
-0.37;0.15
-0.38;0.195
-0.38;0.215
-0.365;0.225
-0.375;0.245
-0.36;0.265
-0.36;0.255
-0.37;0.29
-0.35;0.31
-0.35;0.31
-0.335;0.34
-0.33;0.355
-0.33;0.36
-0.33;0.35
-0.33;0.38
-0.31;0.42
-0.33;0.425
-0.335;0.46
-0.33;0.5
-0.32;0.51
-0.35;0.535
-0.37;0.56
-0.37;0.61
-0.38;0.645
-0.39;0.68
-0.41;0.725
-0.41;0.715
-0.45;0.755
-0.465;0.78
-0.445;0.84
-0.45;0.845
-0.445;0.885
-0.44;0.905
-0.43;0.92
-0.42;0.91
-0.395;0.89
-0.36;0.85
-0.335;0.83
-0.28;0.79
-0.245;0.7
-0.185;0.635
-0.14;0.57
-0.13;0.47
-0.155;0.385
-0.095;0.335
-0.105;0.295
-0.09;0.225
-0.105;0.17
-0.1;0.14
-0.11;0.11
-0.105;0.075
-0.11;0.065
-0.09;0.045
-0.1;0.025
-0.1;0.02
-0.11;-0.005
-0.12;0.005
-0.12;0.015
-0.13;0.005
-0.11;0
-0.13;0.005
-0.135;0.005
-0.15;0
-0.17;0.01
-0.145;0
-0.16;-0.005
-0.185;-0.015
-0.18;0
-0.18;0.01
-0.185;0.01
-0.195;0
-0.195;-0.015
-0.185;0
-0.195;-0.01
-0.21;0
-0.185;0
-0.17;0.015
-0.17;0
-0.185;0
-0.18;-0.01
-0.18;-0.01
-0.16;-0.03
-0.155;-0.04
-0.18;-0.02
-0.165;-0.03
-0.175;-0.035
-0.15;-0.025
-0.16;-0.035
-0.145;-0.03
-0.13;-0.015
-0.115;-0.025
-0.085;-0.02
-0.04;-0.04
-0.015;-0.035
0.025;-0.01
0.055;0.025
0.075;0.05
0.105;0.025
0.13;0.05
0.155;0.08
0.2;0.05
0.235;0.03
0.23;-0.015
0.23;-0.025
0.21;-0.03
0.215;-0.06
0.235;-0.08
0.24;-0.105
0.245;-0.09
0.195;-0.1
0.135;-0.12
0.06;-0.085
-0.01;-0.08
-0.055;-0.09
-0.1;-0.06
-0.135;-0.06
-0.15;-0.05
-0.175;-0.035
-0.17;-0.05
-0.175;-0.045
-0.155;-0.06
-0.19;-0.09
-0.19;-0.1
-0.225;-0.07
-0.26;-0.08
-0.275;-0.08
-0.175;-0.12
-0.005;-0.14
0.255;-0.155
0.545;-0.125
0.82;-0.045
1.125;-0.065
1.58;-0.325
2.115;-0.9
2.6;-1.54
2.83;-2.18
2.81;-2.82
2.63;-3.46
2.32;-3.535
1.815;-3.015
1.285;-2.38
0.805;-1.745
0.415;-1.305
0.04;-1.03
-0.315;-0.805
-0.535;-0.645
-0.645;-0.515
-0.645;-0.4
-0.625;-0.335
-0.545;-0.235
-0.52;-0.165
-0.53;-0.065
-0.515;0
-0.5;0.05
-0.49;0.1
-0.495;0.14
-0.48;0.18
-0.47;0.175
-0.475;0.205
-0.485;0.24
-0.475;0.26
-0.465;0.27
-0.475;0.27
-0.46;0.275
-0.475;0.31
-0.46;0.33
-0.47;0.335
-0.485;0.33
-0.495;0.35
-0.47;0.39
-0.475;0.39
-0.465;0.43
-0.465;0.45
-0.46;0.45
-0.46;0.47
-0.47;0.49
-0.46;0.535
-0.485;0.55
-0.51;0.595
-0.5;0.63
-0.515;0.66
-0.525;0.705
-0.525;0.725
-0.55;0.765
-0.56;0.81
-0.58;0.84
-0.57;0.865
-0.57;0.885
-0.595;0.92
-0.58;0.93
-0.585;0.955
-0.575;0.945
-0.55;0.945
-0.505;0.9
-0.47;0.825
-0.44;0.75
-0.385;0.7
-0.35;0.625
-0.33;0.53
-0.31;0.45
-0.29;0.395
-0.305;0.32
-0.285;0.24
-0.26;0.18
-0.25;0.15
-0.26;0.105
-0.26;0.035
-0.275;0.01
-0.295;-0.005
-0.3;-0.025
-0.315;-0.005
-0.31;-0.015
-0.32;-0.045
-0.32;-0.03
-0.34;-0.055
-0.335;-0.045
-0.36;-0.06
-0.355;-0.08
-0.39;-0.065
-0.395;-0.08
-0.39;-0.07
-0.39;-0.07
-0.405;-0.07
-0.425;-0.08
-0.435;-0.055
-0.45;-0.06
-0.445;-0.09
-0.435;-0.075
-0.43;-0.1
-0.45;-0.085
-0.455;-0.08
-0.44;-0.095
-0.46;-0.105
-0.46;-0.105
-0.445;-0.13
-0.455;-0.125
-0.44;-0.11
-0.435;-0.13
-0.455;-0.13
-0.465;-0.125
-0.445;-0.13
-0.45;-0.125
-0.455;-0.15
-0.45;-0.15
-0.44;-0.16
-0.44;-0.17
-0.42;-0.16
-0.39;-0.16
-0.35;-0.155
-0.32;-0.16
-0.27;-0.14
-0.24;-0.13
-0.24;-0.105
-0.21;-0.065
-0.18;-0.055
-0.14;-0.07
-0.14;-0.075
-0.085;-0.1
-0.045;-0.115
-0.05;-0.14
-0.04;-0.19
-0.06;-0.18
-0.085;-0.19
-0.07;-0.205
-0.07;-0.245
-0.12;-0.26
-0.155;-0.26
-0.235;-0.225
-0.31;-0.24
-0.36;-0.23
-0.435;-0.23
-0.455;-0.225
-0.475;-0.23
-0.48;-0.225
-0.52;-0.205
-0.525;-0.23
-0.53;-0.23
-0.495;-0.245
-0.5;-0.265
-0.53;-0.265
-0.58;-0.285
-0.615;-0.26
-0.56;-0.27
-0.415;-0.29
-0.175;-0.31
0.13;-0.315
0.43;-0.265
0.75;-0.165
1.15;-0.235
1.655;-0.63
2.195;-1.27
2.555;-1.91
2.63;-2.55
2.56;-3.19
2.325;-3.69
1.92;-3.59
1.355;-2.99
0.835;-2.355
0.39;-1.82
0.01;-1.435
-0.36;-1.145
-0.695;-0.965
-0.895;-0.78
-0.95;-0.65
-0.96;-0.58
-0.93;-0.49
-0.88;-0.41
-0.83;-0.31
-0.84;-0.215
-0.81;-0.145
-0.805;-0.07
-0.795;-0.035
-0.8;-0.03
-0.795;0
-0.805;0.025
-0.82;0.04
-0.795;0.04
-0.785;0.03
-0.77;0.06
-0.79;0.065
-0.795;0.09
-0.785;0.095
-0.775;0.12
-0.785;0.14
-0.775;0.13
-0.78;0.155
-0.77;0.16
-0.775;0.18
-0.77;0.195
-0.755;0.23
-0.77;0.265
-0.77;0.28
-0.805;0.295
-0.78;0.325
-0.775;0.35
-0.805;0.375
-0.795;0.435
-0.82;0.465
-0.84;0.51
-0.865;0.55
-0.885;0.57
-0.885;0.59
-0.89;0.625
-0.885;0.67
-0.905;0.675
-0.915;0.705
-0.88;0.71
-0.875;0.705
-0.85;0.7
-0.82;0.64
-0.76;0.605
-0.735;0.58
-0.68;0.505
-0.635;0.445
-0.605;0.36
-0.59;0.285
-0.55;0.2
-0.545;0.115
-0.495;0.07
-0.51;0.02
-0.495;0
-0.5;-0.075
-0.51;-0.09
-0.49;-0.135
-0.515;-0.14
-0.515;-0.16
-0.51;-0.175
-0.505;-0.17
-0.51;-0.185
-0.52;-0.2
-0.51;-0.2
-0.505;-0.195
-0.53;-0.2
-0.545;-0.21
-0.535;-0.215
-0.55;-0.215
-0.56;-0.23
-0.55;-0.225
-0.565;-0.22
-0.55;-0.23
-0.555;-0.24
-0.555;-0.22
-0.56;-0.235
-0.565;-0.23
-0.565;-0.24
-0.575;-0.225
-0.57;-0.205
-0.59;-0.225
-0.57;-0.245
-0.58;-0.225
-0.58;-0.245
-0.58;-0.245
-0.57;-0.25
-0.56;-0.245
-0.555;-0.235
-0.55;-0.25
-0.55;-0.27
-0.545;-0.285
-0.545;-0.295
-0.535;-0.285
-0.535;-0.27
-0.525;-0.28
-0.51;-0.3
-0.495;-0.29
-0.465;-0.3
-0.43;-0.31
-0.4;-0.3
-0.385;-0.29
-0.365;-0.27
-0.345;-0.265
-0.29;-0.24
-0.28;-0.235
-0.25;-0.205
-0.225;-0.2
-0.2;-0.215
-0.15;-0.205
-0.135;-0.26
-0.125;-0.27
-0.14;-0.28
-0.15;-0.31
-0.14;-0.33
-0.125;-0.34
-0.125;-0.36
-0.155;-0.365
-0.225;-0.385
-0.3;-0.36
-0.34;-0.35
-0.395;-0.35
-0.45;-0.35
-0.47;-0.32
-0.51;-0.33
-0.51;-0.34
-0.545;-0.35
-0.55;-0.355
-0.53;-0.38
-0.51;-0.365
-0.55;-0.365
-0.565;-0.4
-0.61;-0.365
-0.6;-0.365
-0.54;-0.395
-0.35;-0.415
-0.08;-0.445
0.235;-0.415
0.51;-0.33
0.8;-0.26
1.205;-0.4
1.73;-0.875
2.26;-1.515
2.545;-2.155
2.555;-2.795
2.42;-3.435
2.125;-3.72
1.66;-3.47
1.095;-2.835
0.6;-2.2
0.205;-1.73
-0.165;-1.39
-0.515;-1.155
-0.79;-0.97
-0.93;-0.825
-0.935;-0.7
-0.91;-0.635
-0.87;-0.55
-0.84;-0.46
-0.805;-0.39
-0.785;-0.3
-0.775;-0.24
-0.765;-0.19
-0.76;-0.135
-0.75;-0.11
-0.755;-0.09
-0.745;-0.085
-0.755;-0.075
-0.765;-0.06
-0.775;-0.05
-0.755;-0.02
-0.75;-0.025
-0.74;-0.04
-0.73;-0.01
-0.735;0.01
-0.74;0.035
-0.75;0.04
-0.74;0.055
-0.74;0.05
-0.73;0.07
-0.735;0.1
-0.73;0.125
-0.76;0.13
-0.75;0.155
-0.735;0.19
-0.74;0.195
-0.745;0.23
-0.765;0.275
-0.775;0.295
-0.78;0.325
-0.81;0.36
-0.81;0.4
-0.83;0.445
-0.825;0.46
-0.82;0.49
-0.825;0.535
-0.825;0.565
-0.835;0.565
-0.815;0.575
-0.805;0.59
-0.79;0.585
-0.775;0.57
-0.74;0.53
-0.695;0.475
-0.64;0.415
-0.625;0.355
-0.575;0.275
-0.555;0.22
-0.505;0.125
-0.495;0.075
-0.5;0
-0.495;-0.05
-0.485;-0.115
-0.47;-0.16
-0.485;-0.195
-0.485;-0.23
-0.5;-0.24
-0.5;-0.25
-0.49;-0.27
-0.485;-0.25
-0.49;-0.275
-0.48;-0.29
-0.5;-0.285
-0.505;-0.29
-0.505;-0.285
-0.5;-0.285
-0.51;-0.27
-0.515;-0.275
-0.53;-0.27
-0.55;-0.27
-0.54;-0.27
-0.56;-0.295
-0.56;-0.29
-0.565;-0.28
-0.57;-0.285
-0.57;-0.275
-0.54;-0.28
-0.55;-0.28
-0.58;-0.275
-0.555;-0.275
-0.56;-0.265
-0.585;-0.275
-0.555;-0.285
-0.57;-0.3
-0.565;-0.285
-0.555;-0.3
-0.53;-0.31
-0.52;-0.31
-0.525;-0.3
-0.515;-0.31
-0.53;-0.29
-0.505;-0.315
-0.51;-0.32
-0.49;-0.315
-0.49;-0.34
-0.475;-0.315
-0.455;-0.305
-0.395;-0.31
-0.36;-0.295
-0.315;-0.295
-0.28;-0.265
-0.28;-0.255
-0.265;-0.235
-0.245;-0.195
-0.2;-0.185
-0.195;-0.18
-0.145;-0.21
-0.12;-0.265
-0.125;-0.295
-0.13;-0.29
-0.14;-0.295
-0.13;-0.32
-0.115;-0.32
-0.1;-0.36
-0.1;-0.385
-0.14;-0.365
-0.225;-0.355
-0.295;-0.32
-0.335;-0.32
-0.39;-0.33
-0.44;-0.32
-0.48;-0.31
-0.51;-0.32
-0.52;-0.315
-0.515;-0.32
-0.49;-0.33
-0.485;-0.34
-0.495;-0.335
-0.5;-0.325
-0.535;-0.345
-0.565;-0.315
-0.54;-0.335
-0.43;-0.365
-0.235;-0.39
0.045;-0.395
0.33;-0.34
0.6;-0.255
0.94;-0.255
1.375;-0.53
1.935;-1.1
2.365;-1.74
2.515;-2.38
2.485;-3.02
2.32;-3.605
1.98;-3.655
1.475;-3.195
0.935;-2.56
0.5;-1.925
0.115;-1.505
-0.23;-1.2
-0.565;-0.975
-0.785;-0.795
-0.875;-0.69
-0.865;-0.6
-0.835;-0.515
-0.8;-0.42
-0.77;-0.305
-0.73;-0.23
-0.695;-0.14
-0.68;-0.105
-0.675;-0.08
-0.695;-0.04
-0.685;-0.01
-0.67;0
-0.67;0.025
-0.675;0.045
-0.685;0.05
-0.69;0.055
-0.665;0.085
-0.64;0.09
-0.65;0.09
-0.63;0.13
-0.66;0.125
-0.64;0.145
-0.63;0.16
-0.63;0.175
-0.625;0.205
-0.61;0.22
-0.62;0.215
-0.605;0.255
-0.615;0.28
-0.62;0.3
-0.635;0.295
-0.64;0.35
-0.655;0.395
-0.65;0.41
-0.675;0.465
-0.655;0.52
-0.7;0.55
-0.715;0.58
-0.72;0.6
-0.72;0.67
-0.73;0.685
-0.745;0.7
-0.735;0.73
-0.725;0.745
-0.735;0.74
-0.705;0.745
-0.665;0.715
-0.63;0.675
-0.63;0.635
-0.58;0.6
-0.545;0.5
-0.505;0.445
-0.425;0.37
-0.415;0.295
-0.41;0.215
-0.39;0.15
-0.38;0.1
-0.38;0.03
-0.35;-0.015
-0.34;-0.06
-0.345;-0.085
-0.35;-0.11
-0.36;-0.135
-0.355;-0.14
-0.36;-0.15
-0.365;-0.18
-0.38;-0.16
-0.37;-0.16
-0.37;-0.16
-0.355;-0.18
-0.38;-0.16
-0.395;-0.175
-0.4;-0.19
-0.415;-0.175
-0.42;-0.16
-0.415;-0.17
-0.425;-0.175
-0.425;-0.17
-0.42;-0.15
-0.445;-0.155
-0.42;-0.16
-0.42;-0.185
-0.43;-0.155
-0.45;-0.135
-0.42;-0.155
-0.425;-0.14
-0.415;-0.145
-0.425;-0.16
-0.42;-0.155
-0.42;-0.155
-0.405;-0.17
-0.395;-0.17
-0.39;-0.175
-0.375;-0.19
-0.375;-0.195
-0.375;-0.165
-0.385;-0.18
-0.35;-0.205
-0.365;-0.205
-0.365;-0.2
-0.36;-0.19
-0.31;-0.195
-0.28;-0.19
-0.245;-0.19
-0.19;-0.19
-0.18;-0.17
-0.16;-0.15
-0.14;-0.125
-0.11;-0.13
-0.065;-0.13
-0.055;-0.08
-0.04;-0.1
0.015;-0.115
0.035;-0.13
0.05;-0.155
0.06;-0.18
0.04;-0.205
0.005;-0.225
0.025;-0.25
0.05;-0.27
0.04;-0.285
-0.025;-0.27
-0.075;-0.26
-0.16;-0.255
-0.22;-0.235
-0.285;-0.235
-0.315;-0.23
-0.33;-0.215
-0.355;-0.205
-0.39;-0.21
-0.395;-0.225
-0.415;-0.23
-0.375;-0.245
-0.375;-0.26
-0.395;-0.255
-0.43;-0.235
-0.46;-0.225
-0.44;-0.23
-0.36;-0.26
-0.135;-0.28
0.13;-0.305
0.45;-0.265
0.75;-0.16
1.11;-0.19
1.595;-0.47
2.115;-1.08
2.55;-1.72
2.77;-2.36
2.78;-3
2.655;-3.58
2.32;-3.685
1.8;-3.245
1.25;-2.61
0.775;-1.975
0.365;-1.51
-0.03;-1.195
-0.38;-0.95
-0.62;-0.76
-0.715;-0.625
-0.77;-0.535
-0.74;-0.42
-0.705;-0.33
-0.65;-0.24
-0.62;-0.16
-0.6;-0.08
-0.6;-0.035
-0.605;0.04
-0.595;0.065
-0.6;0.1
-0.615;0.135
-0.6;0.14
-0.6;0.14
-0.585;0.15
-0.575;0.19
-0.57;0.175
-0.575;0.225
-0.55;0.235
-0.555;0.245
-0.545;0.265
-0.545;0.27
-0.525;0.295
-0.545;0.325
-0.535;0.31
-0.515;0.36
-0.535;0.37
-0.535;0.36
-0.56;0.41
-0.525;0.435
-0.535;0.47
-0.57;0.505
-0.595;0.565
-0.585;0.58
-0.59;0.605
-0.615;0.655
-0.605;0.7
-0.61;0.74
-0.615;0.76
-0.62;0.805
-0.61;0.86
-0.625;0.86
-0.61;0.895
-0.61;0.925
-0.59;0.895
-0.58;0.9
-0.565;0.885
-0.53;0.86
-0.475;0.82
-0.435;0.74
-0.385;0.67
-0.33;0.585
-0.31;0.495
-0.295;0.42
-0.28;0.345
-0.275;0.285
-0.24;0.23
-0.225;0.16
-0.24;0.14
-0.25;0.085
-0.235;0.055
-0.22;0.025
-0.24;0.015
-0.235;0.005
-0.24;-0.02
-0.255;-0.025
-0.26;-0.025
-0.255;-0.04
-0.25;-0.04
-0.255;-0.04
-0.25;-0.03
-0.28;-0.035
-0.29;-0.035
-0.28;-0.04
-0.28;-0.02
-0.26;-0.045
-0.295;-0.03
-0.275;-0.015
-0.3;-0.02
-0.285;-0.045
-0.29;-0.03
-0.29;-0.01
-0.3;-0.025
-0.31;-0.01
-0.3;-0.02
-0.28;-0.03
-0.285;-0.01
-0.285;-0.025
-0.3;-0.05
-0.295;-0.01
-0.285;-0.02
-0.27;-0.04
-0.26;-0.035
-0.28;-0.035
-0.25;-0.025
-0.24;-0.03
-0.23;-0.06
-0.215;-0.045
-0.24;-0.06
-0.21;-0.045
-0.205;-0.065
-0.155;-0.055
-0.105;-0.035
-0.075;-0.05
-0.05;-0.03
-0.05;-0.015
-0.02;-0.005
0.04;0.02
0.06;0.045
0.06;0.045
0.09;0.04
0.145;0.02
0.19;0.005
0.22;-0.015
0.17;-0.035
0.15;-0.025
0.145;-0.05
0.16;-0.08
0.165;-0.13
0.135;-0.11
0.05;-0.12
-0.015;-0.095
-0.04;-0.07
-0.11;-0.085
-0.145;-0.115
-0.165;-0.075
-0.185;-0.07
-0.22;-0.075
-0.23;-0.085
-0.205;-0.095
-0.215;-0.095
-0.215;-0.09
-0.23;-0.085
-0.255;-0.08
-0.285;-0.095
-0.275;-0.1
-0.215;-0.095
-0.025;-0.135
0.235;-0.145
0.58;-0.14
0.86;-0.065
1.21;-0.005
1.665;-0.16
2.205;-0.65
2.715;-1.29
2.99;-1.93
2.975;-2.57
2.795;-3.21
2.515;-3.48
2.03;-3.185
1.48;-2.55
1.02;-1.915
0.63;-1.47
0.235;-1.125
-0.15;-0.865
-0.425;-0.675
-0.575;-0.51
-0.62;-0.42
-0.585;-0.34
-0.555;-0.26
-0.5;-0.165
-0.46;-0.08
-0.455;0
-0.44;0.055
-0.4;0.105
-0.405;0.16
-0.425;0.17
-0.43;0.165
-0.425;0.205
-0.425;0.22
-0.435;0.215
-0.415;0.23
-0.415;0.25
-0.425;0.245
-0.395;0.25
-0.38;0.27
-0.37;0.305
-0.37;0.3
-0.375;0.31
-0.37;0.34
-0.385;0.34
-0.385;0.37
-0.38;0.395
-0.36;0.395
-0.36;0.41
-0.38;0.445
-0.39;0.475
-0.415;0.515
-0.42;0.545
-0.415;0.57
-0.42;0.61
-0.44;0.63
-0.46;0.66
-0.47;0.68
-0.47;0.72
-0.485;0.775
-0.49;0.795
-0.49;0.83
-0.505;0.835
-0.485;0.85
-0.475;0.875
-0.46;0.875
-0.43;0.86
-0.395;0.825
-0.355;0.775
-0.325;0.7
-0.275;0.63
-0.2;0.58
-0.2;0.51
-0.19;0.415
-0.155;0.345
-0.165;0.305
-0.135;0.245
-0.12;0.175
-0.135;0.14
-0.135;0.095
-0.145;0.095
-0.13;0.05
-0.135;0.02
-0.14;-0.005
-0.14;0
-0.155;-0.03
-0.155;-0.03
-0.16;-0.03
-0.165;-0.015
-0.15;-0.02
-0.18;-0.015
-0.2;-0.025
-0.195;-0.02
-0.175;-0.045
-0.185;-0.045
-0.195;-0.035
-0.185;-0.045
-0.195;-0.045
-0.205;-0.05
-0.195;-0.045
-0.195;-0.045
-0.2;-0.03
-0.215;-0.025
-0.205;-0.02
-0.2;-0.025
-0.205;-0.035
-0.185;-0.05
-0.185;-0.04
-0.18;-0.04
-0.19;-0.03
-0.175;-0.055
-0.18;-0.065
-0.19;-0.045
-0.185;-0.04
-0.155;-0.07
-0.16;-0.055
-0.16;-0.065
-0.155;-0.05
-0.175;-0.04
-0.165;-0.045
-0.125;-0.055
-0.085;-0.075
-0.07;-0.09
-0.04;-0.08
-0.005;-0.065
0;-0.03
0.025;-0.03
0.06;-0.015
0.09;0.005
0.095;0.03
0.105;0.02
0.145;0.03
0.21;0
0.245;-0.045
0.235;-0.05
0.185;-0.065
0.18;-0.07
0.155;-0.115
0.21;-0.125
0.22;-0.14
0.17;-0.15
0.1;-0.135
0.03;-0.115
-0.02;-0.105
-0.085;-0.1
-0.115;-0.12
-0.15;-0.1
-0.185;-0.09
-0.205;-0.07
-0.205;-0.1
-0.195;-0.12
-0.195;-0.11
-0.19;-0.155
-0.2;-0.14
-0.22;-0.12
-0.255;-0.135
-0.245;-0.135
-0.145;-0.135
0.025;-0.175
0.28;-0.175
0.585;-0.16
0.845;-0.07
1.155;-0.05
1.57;-0.28
2.11;-0.77
2.575;-1.41
2.81;-2.05
2.75;-2.69
2.57;-3.265
2.23;-3.455
1.74;-3.085
1.23;-2.45
0.785;-1.83
0.415;-1.405
0.045;-1.1
-0.275;-0.86
-0.53;-0.675
-0.64;-0.545
-0.625;-0.455
-0.6;-0.36
-0.55;-0.29
-0.535;-0.205
-0.525;-0.115
-0.48;-0.025
-0.48;0.025
-0.455;0.065
-0.475;0.1
-0.485;0.13
-0.495;0.135
-0.495;0.17
-0.485;0.185
-0.495;0.185
-0.48;0.185
-0.47;0.21
-0.5;0.24
-0.485;0.24
-0.48;0.255
-0.485;0.26
-0.495;0.265
-0.46;0.29
-0.475;0.31
-0.49;0.315
-0.5;0.34
-0.505;0.34
-0.51;0.355
-0.515;0.385
-0.535;0.415
-0.54;0.435
-0.545;0.455
-0.535;0.48
-0.555;0.53
-0.57;0.58
-0.595;0.605
-0.605;0.625
-0.62;0.66
-0.635;0.695
-0.65;0.7
-0.665;0.755
-0.685;0.775
-0.685;0.79
-0.69;0.775
-0.69;0.79
-0.68;0.78
-0.65;0.76
-0.615;0.715
-0.575;0.675
-0.56;0.625
-0.51;0.585
-0.465;0.535
-0.435;0.45
-0.41;0.38
-0.405;0.33
-0.38;0.24
-0.405;0.185
-0.405;0.13
-0.405;0.095
-0.42;0.05
-0.4;0.005
-0.405;-0.03
-0.42;-0.03
-0.42;-0.04
-0.45;-0.045
-0.445;-0.07
-0.45;-0.07
-0.45;-0.05
-0.46;-0.07
-0.475;-0.1
-0.49;-0.13
-0.505;-0.105
-0.52;-0.09
-0.52;-0.095
-0.545;-0.1
-0.535;-0.095
-0.555;-0.095
-0.565;-0.095
-0.57;-0.1
-0.565;-0.1
-0.585;-0.095
-0.575;-0.075
-0.59;-0.105
-0.615;-0.12
-0.61;-0.11
-0.595;-0.105
-0.595;-0.105
-0.61;-0.115
-0.625;-0.125
-0.595;-0.11
-0.61;-0.12
-0.63;-0.145
-0.65;-0.145
-0.64;-0.15
-0.64;-0.16
-0.645;-0.16
-0.645;-0.165
-0.655;-0.175
-0.635;-0.19
-0.66;-0.175
-0.615;-0.18
-0.585;-0.17
-0.555;-0.17
-0.52;-0.17
-0.5;-0.15
-0.485;-0.125
-0.46;-0.13
-0.45;-0.12
-0.425;-0.085
-0.41;-0.07
-0.4;-0.095
-0.365;-0.095
-0.355;-0.125
-0.365;-0.155
-0.39;-0.195
-0.39;-0.21
-0.385;-0.21
-0.375;-0.255
-0.37;-0.275
-0.37;-0.27
-0.445;-0.245
-0.5;-0.235
-0.55;-0.225
-0.61;-0.24
-0.67;-0.24
-0.72;-0.23
-0.75;-0.21
-0.77;-0.21
-0.8;-0.22
-0.815;-0.23
-0.805;-0.24
-0.815;-0.25
-0.825;-0.235
-0.85;-0.245
-0.88;-0.255
-0.895;-0.275
-0.82;-0.285
-0.68;-0.29
-0.435;-0.305
-0.175;-0.335
0.06;-0.235
0.34;-0.18
0.735;-0.31
1.22;-0.745
1.755;-1.385
2.02;-2.025
2.025;-2.665
1.87;-3.295
1.56;-3.56
1.08;-3.355
0.545;-2.72
0.08;-2.085
-0.31;-1.59
-0.65;-1.28
-0.995;-1.04
-1.23;-0.86
-1.33;-0.725
-1.375;-0.635
-1.335;-0.56
-1.305;-0.495
-1.28;-0.42
-1.26;-0.335
-1.265;-0.24
-1.235;-0.205
-1.235;-0.155
-1.22;-0.125
-1.245;-0.075
-1.25;-0.055
-1.23;-0.07
-1.23;-0.045
-1.25;-0.035
-1.255;-0.04
-1.24;-0.01
-1.275;-0.015
-1.27;-0.01
-1.265;0
-1.25;0.015
-1.275;0.01
-1.27;0.05
-1.265;0.08
-1.275;0.105
-1.275;0.1
-1.295;0.08
-1.275;0.11
-1.295;0.125
-1.305;0.18
-1.325;0.195
-1.345;0.24
-1.34;0.255
-1.365;0.275
-1.39;0.33
-1.41;0.335
-1.4;0.395
-1.415;0.42
-1.43;0.445
-1.45;0.485
-1.48;0.495
-1.485;0.535
-1.485;0.58
-1.485;0.575
-1.48;0.57
-1.465;0.6
-1.465;0.555
-1.43;0.57
-1.4;0.5
-1.375;0.43
-1.335;0.38
-1.32;0.295
-1.3;0.195
-1.285;0.15
-1.235;0.06
-1.245;0
-1.245;-0.055
-1.235;-0.12
-1.25;-0.18
-1.255;-0.21
-1.27;-0.23
-1.25;-0.255
-1.3;-0.275
-1.305;-0.29
-1.305;-0.29
-1.28;-0.315
-1.28;-0.32
-1.31;-0.32
-1.32;-0.32
-1.3;-0.345
-1.315;-0.32
-1.315;-0.33
-1.345;-0.33
-1.35;-0.35
-1.335;-0.335
-1.34;-0.33
-1.355;-0.355
-1.365;-0.365
-1.395;-0.345
-1.395;-0.355
-1.39;-0.34
-1.415;-0.36
-1.395;-0.345
-1.405;-0.345
-1.42;-0.36
-1.42;-0.355
-1.435;-0.37
-1.42;-0.37
-1.425;-0.385
-1.44;-0.37
-1.43;-0.4
-1.425;-0.4
-1.425;-0.385
-1.43;-0.395
-1.42;-0.4
-1.43;-0.415
-1.43;-0.41
-1.425;-0.41
-1.435;-0.415
-1.435;-0.41
-1.415;-0.4
-1.38;-0.4
-1.39;-0.425
-1.35;-0.43
-1.325;-0.43
-1.285;-0.405
-1.265;-0.385
-1.26;-0.37
-1.225;-0.32
-1.205;-0.3
-1.205;-0.295
-1.185;-0.305
-1.13;-0.32
-1.115;-0.38
-1.125;-0.38
-1.155;-0.395
-1.145;-0.42
-1.16;-0.415
-1.14;-0.47
-1.12;-0.45
-1.15;-0.495
-1.225;-0.465
-1.295;-0.44
-1.34;-0.42
-1.375;-0.425
-1.45;-0.43
-1.465;-0.44
-1.46;-0.425
-1.505;-0.425
-1.515;-0.445
-1.51;-0.445
-1.515;-0.46
-1.49;-0.465
-1.51;-0.445
-1.53;-0.46
-1.56;-0.485
-1.545;-0.48
-1.49;-0.485
-1.34;-0.515
-1.09;-0.525
-0.805;-0.495
-0.535;-0.405
-0.26;-0.375
0.155;-0.585
0.685;-1.075
1.17;-1.715
1.42;-2.355
1.43;-2.995
1.275;-3.555
0.97;-3.76
0.47;-3.42
-0.06;-2.785
-0.54;-2.15
-0.92;-1.735
-1.29;-1.455
-1.65;-1.295
-1.88;-1.1
-1.985;-0.94
-1.965;-0.865
-1.965;-0.74
-1.91;-0.63
-1.85;-0.57
-1.82;-0.47
-1.79;-0.375
-1.775;-0.305
-1.775;-0.295
-1.785;-0.26
-1.795;-0.245
-1.79;-0.215
-1.775;-0.205
-1.78;-0.175
-1.79;-0.15
-1.79;-0.165
-1.81;-0.15
-1.79;-0.135
-1.78;-0.115
-1.78;-0.125
-1.78;-0.105
-1.79;-0.085
-1.795;-0.075
-1.77;-0.055
-1.795;-0.07
-1.785;-0.055
-1.785;-0.04
-1.795;0.005
-1.8;0.03
-1.785;0.045
-1.8;0.08
-1.8;0.1
-1.79;0.135
-1.795;0.175
-1.815;0.2
-1.815;0.215
-1.83;0.245
-1.845;0.305
-1.85;0.35
-1.875;0.37
-1.845;0.4
-1.86;0.43
-1.875;0.45
-1.875;0.46
-1.87;0.48
-1.85;0.455
-1.81;0.45
-1.8;0.42
-1.79;0.365
-1.765;0.305
-1.705;0.27
-1.685;0.19
-1.645;0.12
-1.615;0.01
-1.625;0
-1.59;-0.08
-1.595;-0.165
-1.605;-0.215
-1.58;-0.275
-1.575;-0.28
-1.6;-0.3
-1.585;-0.355
-1.575;-0.375
-1.565;-0.385
-1.585;-0.42
-1.565;-0.42
-1.58;-0.395
-1.585;-0.41
-1.585;-0.39
-1.56;-0.395
-1.59;-0.435
-1.595;-0.425
-1.62;-0.425
-1.605;-0.43
-1.63;-0.42
-1.62;-0.425
-1.65;-0.4
-1.65;-0.415
-1.655;-0.445
-1.665;-0.42
-1.67;-0.43
-1.675;-0.43
-1.675;-0.41
-1.69;-0.41
-1.69;-0.425
-1.685;-0.445
-1.66;-0.445
-1.65;-0.45
-1.67;-0.43
-1.665;-0.435
-1.665;-0.445
-1.665;-0.445
-1.66;-0.445
-1.645;-0.475
-1.65;-0.455
-1.655;-0.455
-1.655;-0.445
-1.64;-0.47
-1.645;-0.465
-1.625;-0.49
-1.6;-0.495
-1.56;-0.48
-1.535;-0.495
-1.54;-0.5
-1.5;-0.485
-1.495;-0.45
-1.47;-0.435
-1.44;-0.415
-1.4;-0.4
-1.385;-0.42
-1.355;-0.38
-1.3;-0.42
-1.26;-0.4
-1.255;-0.46
-1.25;-0.475
-1.255;-0.49
-1.285;-0.51
-1.28;-0.53
-1.255;-0.545
-1.28;-0.56
-1.34;-0.57
-1.415;-0.54
-1.465;-0.525
-1.495;-0.525
-1.56;-0.535
-1.58;-0.525
-1.605;-0.525
-1.625;-0.51
-1.645;-0.515
-1.625;-0.53
-1.63;-0.53
-1.645;-0.525
-1.625;-0.535
-1.64;-0.535
-1.66;-0.525
-1.695;-0.54
-1.705;-0.54
-1.625;-0.53
-1.43;-0.575
-1.17;-0.59
-0.86;-0.54
-0.565;-0.45
-0.22;-0.43
0.26;-0.675
0.79;-1.28
1.28;-1.92
1.465;-2.56
1.465;-3.2
1.33;-3.7
0.98;-3.815
0.465;-3.42
-0.12;-2.785
-0.59;-2.15
-0.98;-1.735
-1.345;-1.505
-1.74;-1.295
-1.98;-1.09
-2.065;-0.95
-2.075;-0.85
-2.035;-0.76
-1.985;-0.665
-1.945;-0.545
-1.905;-0.475
-1.93;-0.385
-1.895;-0.33
-1.895;-0.295
-1.89;-0.27
-1.86;-0.26
-1.87;-0.215
-1.855;-0.205
-1.855;-0.185
-1.855;-0.18
-1.835;-0.17
-1.84;-0.135
-1.86;-0.125
-1.855;-0.14
-1.835;-0.1
-1.84;-0.11
-1.83;-0.09
-1.81;-0.05
-1.825;-0.025
-1.81;-0.015
-1.83;0
-1.825;0.03
-1.805;0.04
-1.815;0.075
-1.79;0.09
-1.805;0.125
-1.815;0.18
-1.835;0.2
-1.83;0.245
-1.83;0.27
-1.85;0.31
-1.865;0.33
-1.875;0.385
-1.89;0.425
-1.865;0.445
-1.89;0.475
-1.88;0.5
-1.88;0.515
-1.89;0.525
-1.86;0.525
-1.825;0.495
-1.77;0.49
-1.78;0.435
-1.705;0.375
-1.65;0.31
-1.625;0.22
-1.555;0.155
-1.53;0.105
-1.53;0.02
-1.5;-0.055
-1.48;-0.08
-1.48;-0.14
-1.48;-0.185
-1.465;-0.23
-1.46;-0.25
-1.46;-0.27
-1.45;-0.265
-1.44;-0.295
-1.435;-0.3
-1.44;-0.305
-1.46;-0.325
-1.455;-0.35
-1.45;-0.325
-1.455;-0.34
-1.46;-0.34
-1.46;-0.325
-1.465;-0.33
-1.465;-0.335
-1.445;-0.33
-1.465;-0.345
-1.485;-0.325
-1.48;-0.34
-1.475;-0.325
-1.46;-0.335
-1.47;-0.315
-1.475;-0.33
-1.49;-0.35
-1.48;-0.32
-1.47;-0.32
-1.45;-0.32
-1.435;-0.34
-1.46;-0.32
-1.44;-0.34
-1.44;-0.34
-1.43;-0.33
-1.41;-0.35
-1.435;-0.35
-1.42;-0.345
-1.425;-0.33
-1.415;-0.365
-1.41;-0.33
-1.385;-0.355
-1.385;-0.36
-1.37;-0.38
-1.345;-0.385
-1.31;-0.345
-1.27;-0.365
-1.23;-0.355
-1.215;-0.315
-1.2;-0.285
-1.15;-0.285
-1.155;-0.265
-1.12;-0.26
-1.09;-0.255
-1.07;-0.26
-1.02;-0.255
-1;-0.275
-0.99;-0.32
-0.99;-0.33
-0.995;-0.33
-0.985;-0.35
-0.98;-0.37
-0.965;-0.39
-1;-0.39
-1.035;-0.375
-1.105;-0.355
-1.155;-0.355
-1.18;-0.355
-1.225;-0.355
-1.255;-0.35
-1.28;-0.34
-1.315;-0.33
-1.33;-0.34
-1.315;-0.35
-1.305;-0.37
-1.31;-0.365
-1.31;-0.365
-1.305;-0.355
-1.325;-0.355
-1.34;-0.365
-1.285;-0.36
-1.125;-0.4
-0.925;-0.43
-0.595;-0.395
-0.295;-0.365
0.025;-0.285
0.45;-0.365
1.025;-0.75
1.585;-1.39
1.915;-2.03
1.96;-2.67
1.795;-3.235
1.525;-3.565
1.11;-3.415
0.575;-2.81
0.065;-2.195
-0.335;-1.73
-0.715;-1.395
-1.05;-1.135
-1.355;-0.955
-1.52;-0.78
-1.575;-0.65
-1.56;-0.585
-1.525;-0.53
-1.46;-0.46
-1.43;-0.355
-1.41;-0.29
-1.395;-0.215
-1.375;-0.155
-1.36;-0.12
-1.35;-0.105
-1.355;-0.1
-1.34;-0.055
-1.345;-0.05
-1.34;-0.035
-1.34;-0.035
-1.35;-0.02
-1.34;-0.01
-1.345;0.015
-1.33;0.005
-1.3;0.03
-1.3;0.04
-1.285;0.045
-1.295;0.07
-1.305;0.1
-1.29;0.115
-1.26;0.125
-1.28;0.13
-1.285;0.16
-1.28;0.17
-1.28;0.2
-1.295;0.225
-1.315;0.245
-1.31;0.295
-1.32;0.31
-1.335;0.355
-1.335;0.375
-1.345;0.425
-1.355;0.435
-1.365;0.455
-1.35;0.505
-1.345;0.555
-1.36;0.555
-1.345;0.565
-1.33;0.575
-1.325;0.585
-1.285;0.57
-1.255;0.55
-1.22;0.52
-1.175;0.49
-1.125;0.41
-1.11;0.345
-1.045;0.275
-1.04;0.185
-1.035;0.145
-1.025;0.105
-1.005;0.02
-0.99;-0.03
-0.99;-0.075
-0.98;-0.125
-0.97;-0.135
-0.97;-0.175
-0.97;-0.165
-0.99;-0.175
-1.005;-0.205
-0.995;-0.21
-1.015;-0.24
-1.005;-0.235
-0.95;-0.255
-0.955;-0.255
-0.945;-0.235
-0.99;-0.245
-0.97;-0.235
-0.99;-0.24
-0.97;-0.245
-0.96;-0.235
-0.965;-0.22
-1;-0.23
-0.98;-0.215
-0.975;-0.235
-0.985;-0.245
-0.985;-0.245
-0.975;-0.26
-0.995;-0.25
-0.98;-0.235
-0.955;-0.27
-0.95;-0.235
-0.95;-0.24
-0.945;-0.245
-0.945;-0.235
-0.96;-0.235
-0.935;-0.225
-0.92;-0.245
-0.935;-0.255
-0.93;-0.25
-0.915;-0.265
-0.9;-0.26
-0.885;-0.245
-0.89;-0.26
-0.875;-0.26
-0.83;-0.245
-0.8;-0.25
-0.785;-0.25
-0.74;-0.26
-0.705;-0.255
-0.7;-0.22
-0.665;-0.22
-0.675;-0.185
-0.635;-0.17
-0.595;-0.165
-0.56;-0.195
-0.52;-0.175
-0.485;-0.205
-0.47;-0.21
-0.48;-0.22
-0.5;-0.24
-0.495;-0.24
-0.49;-0.275
-0.48;-0.305
-0.485;-0.31
-0.52;-0.31
-0.575;-0.28
-0.625;-0.28
-0.67;-0.275
-0.72;-0.265
-0.735;-0.265
-0.76;-0.25
-0.77;-0.25
-0.755;-0.275
-0.775;-0.275
-0.775;-0.265
-0.785;-0.285
-0.775;-0.285
-0.78;-0.31
-0.815;-0.285
-0.79;-0.28
-0.705;-0.29
-0.59;-0.28
-0.365;-0.31
-0.065;-0.315
0.22;-0.245
0.52;-0.16
0.935;-0.27
1.465;-0.65
1.96;-1.255
2.23;-1.895
2.215;-2.535
2.08;-3.1
1.795;-3.395
1.365;-3.23
0.865;-2.635
0.425;-2.01
0.07;-1.515
-0.275;-1.19
-0.6;-0.925
-0.875;-0.76
-1;-0.64
-1.025;-0.545
-0.995;-0.485
-0.955;-0.4
-0.915;-0.335
-0.87;-0.245
-0.86;-0.165
-0.83;-0.095
-0.83;-0.05
-0.805;-0.025
-0.805;-0.02
-0.8;0
-0.805;0
-0.775;0.055
-0.795;0.065
-0.8;0.08
-0.79;0.08
-0.77;0.105
-0.765;0.105
-0.75;0.125
-0.77;0.12
-0.745;0.165
-0.715;0.165
-0.715;0.175
-0.7;0.19
-0.71;0.205
-0.705;0.22
-0.715;0.24
-0.72;0.26
-0.705;0.3
-0.71;0.335
-0.74;0.35
-0.75;0.35
-0.75;0.41
-0.76;0.425
-0.76;0.445
-0.77;0.495
-0.755;0.545
-0.795;0.55
-0.785;0.575
-0.78;0.615
-0.775;0.63
-0.78;0.655
-0.75;0.69
-0.77;0.685
-0.775;0.685
-0.73;0.68
-0.7;0.665
-0.655;0.63
-0.63;0.57
-0.57;0.505
-0.56;0.45
-0.485;0.42
-0.465;0.325
-0.465;0.27
-0.425;0.195
-0.415;0.145
-0.42;0.09
-0.42;0.045
-0.395;0.025
-0.42;-0.03
-0.41;-0.045
-0.395;-0.07
-0.415;-0.105
-0.415;-0.09
-0.425;-0.125
-0.435;-0.12
-0.42;-0.14
-0.41;-0.15
-0.415;-0.12
-0.4;-0.12
-0.405;-0.125
-0.415;-0.135
-0.415;-0.12
-0.43;-0.13
-0.415;-0.125
-0.42;-0.135
-0.43;-0.14
-0.435;-0.11
-0.435;-0.12
-0.41;-0.155
-0.425;-0.13
-0.415;-0.145
-0.42;-0.135
-0.43;-0.125
-0.425;-0.12
-0.41;-0.155
-0.405;-0.135
-0.405;-0.15
-0.415;-0.155
-0.42;-0.15
-0.405;-0.13
-0.385;-0.14
-0.4;-0.16
-0.38;-0.16
-0.405;-0.155
-0.375;-0.145
-0.36;-0.175
-0.36;-0.15
-0.355;-0.165
-0.31;-0.17
-0.29;-0.18
-0.22;-0.19
-0.19;-0.16
-0.16;-0.165
-0.115;-0.135
-0.13;-0.1
-0.1;-0.07
-0.075;-0.06
-0.04;-0.055
-0.03;-0.08
0.015;-0.095
0.03;-0.11
0.025;-0.13
0;-0.155
0.005;-0.175
0;-0.19
0.02;-0.21
0.04;-0.22
0.03;-0.23
-0.01;-0.23
-0.065;-0.195
-0.13;-0.195
-0.18;-0.21
-0.225;-0.195
-0.25;-0.215
-0.255;-0.185
-0.285;-0.195
-0.295;-0.21
-0.285;-0.19
-0.3;-0.22
-0.3;-0.19
-0.295;-0.23
-0.31;-0.215
-0.345;-0.195
-0.335;-0.21
-0.245;-0.215
-0.055;-0.235
0.18;-0.26
0.425;-0.255
0.685;-0.175
0.985;-0.12
1.375;-0.29
1.87;-0.72
2.37;-1.36
2.58;-2
2.55;-2.64
2.37;-3.14
2.06;-3.41
1.61;-3.14
1.12;-2.505
0.695;-1.89
0.35;-1.435
0.02;-1.14
-0.265;-0.895
-0.48;-0.745
-0.585;-0.615
-0.62;-0.51
-0.575;-0.44
-0.5;-0.355
-0.45;-0.265
-0.44;-0.19
-0.415;-0.1
-0.42;-0.06
-0.405;-0.03
-0.375;0.005
-0.375;0.035
-0.41;0.045
-0.405;0.055
-0.4;0.065
-0.395;0.11
-0.365;0.125
-0.37;0.155
-0.35;0.13
-0.36;0.155
-0.34;0.145
-0.33;0.17
-0.33;0.19
-0.335;0.18
-0.34;0.215
-0.315;0.205
-0.29;0.245
-0.3;0.265
-0.29;0.285
-0.34;0.335
-0.345;0.32
-0.34;0.355
-0.315;0.365
-0.335;0.435
-0.355;0.455
-0.375;0.495
-0.38;0.535
-0.375;0.56
-0.365;0.6
-0.385;0.635
-0.39;0.655
-0.375;0.7
-0.395;0.73
-0.4;0.75
-0.405;0.755
-0.385;0.78
-0.385;0.755
-0.34;0.76
-0.285;0.725
-0.26;0.695
-0.2;0.64
-0.175;0.56
-0.13;0.485
-0.1;0.43
-0.075;0.39
-0.055;0.285
-0.035;0.23
-0.05;0.165
-0.05;0.13
-0.035;0.105
-0.03;0.055
-0.035;0.03
-0.045;-0.01
-0.045;0
-0.03;-0.02
-0.03;-0.03
-0.025;-0.05
-0.035;-0.045
-0.04;-0.035
-0.04;-0.05
-0.035;-0.04
-0.03;-0.07
-0.06;-0.06
-0.07;-0.05
-0.07;-0.02
-0.075;-0.04
-0.085;-0.045
-0.08;-0.05
-0.09;-0.055
-0.065;-0.04
-0.07;-0.035
-0.075;-0.035
-0.085;-0.03
-0.08;-0.05
-0.09;-0.045
-0.07;-0.02
-0.075;-0.05
-0.065;-0.04
-0.045;-0.045
-0.05;-0.05
-0.055;-0.05
-0.055;-0.04
-0.035;-0.04
-0.035;-0.055
-0.015;-0.035
-0.015;-0.05
-0.03;-0.06
-0.025;-0.05
0;-0.06
-0.005;-0.06
0.015;-0.06
0.035;-0.05
0.09;-0.065
0.15;-0.06
0.17;-0.02
0.175;-0.03
0.2;-0.01
0.23;0.025
0.26;0.05
0.295;0.05
0.29;0.045
0.315;0.065
0.36;0.025
0.375;0.015
0.355;0
0.34;-0.035
0.345;-0.05
0.365;-0.075
0.375;-0.07
0.4;-0.1
0.365;-0.08
0.295;-0.09
0.26;-0.075
0.2;-0.065
0.145;-0.045
0.09;-0.06
0.065;-0.05
0.055;-0.05
0.04;-0.035
0.02;-0.05
0.02;-0.055
0.05;-0.065
0.05;-0.065
0.045;-0.09
0.015;-0.105
0.005;-0.09
0;-0.06
0.12;-0.08
0.31;-0.11
0.575;-0.125
0.83;-0.11
1.04;-0.02
1.315;-0.005
1.71;-0.235
2.205;-0.755
2.65;-1.395
2.82;-2.035
2.72;-2.675
2.575;-3.175
2.27;-3.345
1.835;-2.965
1.34;-2.33
0.925;-1.73
0.575;-1.335
0.265;-1.015
-0.02;-0.77
-0.23;-0.605
-0.32;-0.475
-0.32;-0.39
-0.29;-0.3
-0.22;-0.23
-0.185;-0.15
-0.16;-0.07
-0.125;0.015
-0.13;0.09
-0.125;0.125
-0.105;0.15
-0.13;0.175
-0.105;0.195
-0.115;0.205
-0.13;0.225
-0.115;0.25
-0.105;0.245
-0.1;0.275
-0.1;0.29
-0.095;0.31
-0.095;0.295
-0.09;0.3
-0.07;0.355
-0.075;0.33
-0.06;0.37
-0.06;0.39
-0.06;0.415
-0.065;0.41
-0.075;0.415
-0.055;0.45
-0.075;0.47
-0.07;0.495
-0.08;0.545
-0.06;0.565
-0.085;0.605
-0.11;0.64
-0.115;0.665
-0.12;0.705
-0.13;0.715
-0.13;0.75
-0.14;0.8
-0.135;0.85
-0.16;0.855
-0.15;0.905
-0.135;0.91
-0.135;0.895
-0.12;0.895
-0.115;0.885
-0.08;0.855
-0.04;0.845
-0.015;0.78
0.035;0.695
0.075;0.645
0.105;0.55
0.125;0.5
0.13;0.425
0.15;0.37
0.165;0.315
0.17;0.26
0.17;0.19
0.18;0.185
0.17;0.135
0.155;0.1
0.165;0.075
0.16;0.08
0.18;0.055
0.175;0.035
0.19;0.035
0.155;0.035
0.14;0.02
0.155;0.025
0.15;0.02
0.14;0.035
0.135;0.025
0.125;0.025
0.135;0.03
0.09;0.04
0.105;0.025
0.115;0.035
0.105;0.035
0.11;0.035
0.1;0.02
0.085;0.045
0.105;0.025
0.1;0.03
0.105;0.03
0.105;0.015
0.095;0.025
0.115;0.015
0.11;0.005
0.125;0.015
0.115;0.005
0.125;0
0.12;0.005
0.125;0.015
0.13;-0.005
0.155;-0.005
0.155;0
0.155;0.01
0.175;-0.015
0.18;-0.02
0.19;-0.005
0.215;0
0.245;-0.005
0.31;-0.005
0.33;0.015
0.355;-0.005
0.38;0.035
0.395;0.07
0.415;0.09
0.44;0.08
0.45;0.08
0.5;0.05
0.54;0.01
0.51;-0.005
0.52;-0.01
0.505;-0.02
0.53;-0.03
0.525;-0.08
0.515;-0.095
0.515;-0.09
0.465;-0.085
0.4;-0.055
0.345;-0.045
0.275;-0.05
0.225;-0.06
0.195;-0.045
0.19;-0.025
0.175;-0.025
0.155;-0.02
0.145;-0.045
0.155;-0.045
0.155;-0.05
0.16;-0.04
0.13;-0.06
0.12;-0.035
0.12;-0.035
0.185;-0.065
0.375;-0.075
0.615;-0.07
0.89;-0.045
1.11;0.02
1.34;0.045
1.725;-0.135
2.18;-0.63
2.69;-1.27
2.985;-1.91
3;-2.55
2.86;-3.185
2.605;-3.47
2.21;-3.19
1.675;-2.555
1.225;-1.92
0.845;-1.345
0.51;-1.04
0.175;-0.81
-0.05;-0.595
-0.18;-0.465
-0.205;-0.37
-0.19;-0.295
-0.14;-0.22
-0.085;-0.13
-0.05;-0.04
-0.035;0.05
-0.045;0.12
-0.03;0.19
-0.01;0.21
0;0.235
-0.01;0.26
-0.035;0.295
-0.01;0.29
0.015;0.31
0.005;0.315
0.005;0.345
0.01;0.335
0.02;0.355
0.015;0.385
0.025;0.395
0.025;0.41
0.035;0.42
0.03;0.455
0.035;0.47
0.035;0.47
0.02;0.49
0.045;0.505
0.035;0.54
0.02;0.55
0.025;0.585
0.025;0.61
0.015;0.645
0.005;0.66
-0.005;0.7
-0.02;0.75
-0.025;0.795
-0.05;0.81
-0.055;0.855
-0.055;0.885
-0.07;0.91
-0.05;0.945
-0.05;0.975
-0.05;1.005
-0.05;0.99
-0.035;0.995
-0.005;0.985
-0.005;0.985
0.05;0.935
0.085;0.88
0.145;0.805
0.15;0.735
0.195;0.65
0.25;0.59
0.27;0.535
0.28;0.45
0.265;0.38
0.29;0.35
0.305;0.305
0.285;0.265
0.29;0.23
0.295;0.19
0.3;0.165
0.29;0.165
0.285;0.12
0.255;0.12
0.28;0.11
0.265;0.11
0.26;0.12
0.26;0.12
0.25;0.115
0.245;0.12
0.22;0.105
0.22;0.105
0.22;0.115
0.215;0.115
0.2;0.12
0.205;0.135
0.205;0.115
0.19;0.105
0.175;0.105
0.185;0.09
0.17;0.11
0.18;0.105
0.19;0.1
0.18;0.095
0.18;0.09
0.17;0.095
0.17;0.08
0.175;0.07
0.185;0.075
0.185;0.08
0.18;0.07
0.205;0.07
0.215;0.065
0.21;0.055
0.195;0.055
0.2;0.055
0.205;0.055
0.21;0.035
0.22;0.06
0.245;0.05
0.295;0.05
0.34;0.06
0.375;0.06
0.38;0.07
0.405;0.1
0.44;0.125
0.46;0.15
0.495;0.175
0.505;0.155
0.535;0.155
0.58;0.145
0.59;0.11
0.58;0.07
0.55;0.055
0.53;0.03
0.56;0.01
0.57;0
0.6;-0.01
0.575;-0.04
0.515;-0.02
0.425;0.015
0.365;0.025
0.33;0.02
0.265;0.025
0.245;0.02
0.235;0.025
0.2;0.015
0.21;0
0.195;0.015
0.2;0.015
0.205;0.005
0.205;0.02
0.17;0.02
0.15;0.02
0.145;0.005
0.205;-0.02
0.37;-0.035
0.62;-0.04
0.905;-0.04
1.18;0.04
1.475;0.055
1.84;-0.145
2.35;-0.685
2.84;-1.325
3.08;-1.965
3.09;-2.605
2.975;-3.245
2.7;-3.48
2.24;-3.085
1.715;-2.45
1.235;-1.815
0.87;-1.3
0.52;-0.995
0.185;-0.765
-0.06;-0.565
-0.185;-0.435
-0.245;-0.345
-0.235;-0.245
-0.18;-0.175
-0.15;-0.08
-0.12;0.01
-0.085;0.075
-0.065;0.15
-0.065;0.195
-0.04;0.235
-0.065;0.275
-0.045;0.285
-0.06;0.31
-0.06;0.33
-0.055;0.33
-0.05;0.35
-0.06;0.345
-0.065;0.365
-0.06;0.375
-0.04;0.405
-0.03;0.39
-0.035;0.4
-0.03;0.415
-0.025;0.425
-0.015;0.44
-0.025;0.48
-0.03;0.5
-0.015;0.525
-0.03;0.55
-0.035;0.565
-0.03;0.61
-0.04;0.625
-0.025;0.65
-0.05;0.695
-0.055;0.71
-0.085;0.76
-0.115;0.805
-0.1;0.855
-0.11;0.88
-0.09;0.9
-0.115;0.945
-0.115;0.96
-0.125;0.995
-0.11;1.035
-0.125;1.045
-0.08;1.05
-0.06;1.03
-0.05;1.005
-0.02;0.98
-0.005;0.905
0.02;0.84
0.07;0.77
0.115;0.67
0.105;0.59
0.155;0.52
0.175;0.445
0.195;0.415
0.2;0.365
0.175;0.285
0.185;0.235
0.185;0.21
0.195;0.195
0.175;0.16
0.16;0.155
0.15;0.125
0.15;0.13
0.155;0.13
0.145;0.11
0.135;0.13
0.145;0.095
0.155;0.13
0.13;0.11
0.125;0.1
0.11;0.095
0.09;0.105
0.095;0.105
0.09;0.09
0.09;0.09
0.075;0.08
0.08;0.085
0.06;0.09
0.06;0.085
0.07;0.11
0.08;0.1
0.09;0.095
0.07;0.07
0.09;0.075
0.085;0.085
0.06;0.07
0.085;0.08
0.085;0.1
0.095;0.08
0.07;0.075
0.09;0.06
0.1;0.055
0.115;0.03
0.12;0.05
0.105;0.06
0.105;0.05
0.14;0.055
0.17;0.055
0.2;0.035
0.235;0.04
0.27;0.06
0.265;0.085
0.3;0.095
